semg,time
0.24282749359052613,0.0031862258911132812
0.24526919790013424,0.0059931278228759766
0.24258332315956532,0.008949756622314453
0.24014161884995722,0.011706113815307617
0.2423391527286045,0.014452219009399414
0.24014161884995722,0.01729559898376465
0.2516176291051153,0.020046234130859375
0.2508851178122329,0.022784709930419922
0.24771090220974235,0.02554011344909668
0.24307166402148694,0.02832937240600586
0.24600170919301667,0.031073331832885742
0.24258332315956532,0.03381633758544922
0.2518617995360761,0.036557674407958984
0.25259431082895856,0.03936004638671875
0.24966426565742883,0.0421142578125
0.24380417531436938,0.04485964775085449
0.24844341350262478,0.047654151916503906
0.244292516176291,0.0504000186920166
0.2530826516908802,0.053137779235839844
0.25479184470760585,0.0558781623840332
0.2518617995360761,0.05865907669067383
0.2440483457453302,0.061405181884765625
0.24819924307166397,0.0641484260559082
0.24526919790013424,0.06689286231994629
0.2535709925528018,0.0696709156036377
0.25698937858625315,0.0724172592163086
0.25454767427664504,0.07515954971313477
0.2445366866072518,0.07793879508972168
0.2518617995360761,0.08068013191223145
0.24722256134782072,0.08342599868774414
0.2540593334147234,0.0864708423614502
0.2565010377243315,0.08925294876098633
0.25235014039799775,0.09199118614196777
0.2445366866072518,0.09473752975463867
0.2491759247955072,0.09751582145690918
0.24502502746917343,0.10026693344116211
0.2508851178122329,0.10300731658935547
0.2540593334147234,0.10573935508728027
0.2518617995360761,0.10854053497314453
0.2420949822976437,0.11128902435302734
0.2489317543645464,0.11403703689575195
0.2445366866072518,0.11677908897399902
0.24990843608838964,0.11955475807189941
0.2530826516908802,0.12228846549987793
0.2518617995360761,0.12502288818359375
0.24038578928091803,0.12781572341918945
0.2464900500549383,0.13056206703186035
0.2420949822976437,0.13331103324890137
0.24526919790013424,0.13605475425720215
0.25015260651935045,0.1388230323791504
0.24819924307166397,0.14156579971313477
0.23599072152362344,0.14431405067443848
0.24526919790013424,0.14705586433410645
0.2398974484189964,0.14983630180358887
0.24331583445244775,0.15261077880859375
0.2508851178122329,0.15535783767700195
0.25015260651935045,0.1581273078918457
0.23696740324746668,0.16086983680725098
0.24575753876205586,0.16362667083740234
0.24038578928091803,0.16637229919433594
0.2423391527286045,0.16915559768676758
0.2508851178122329,0.17189908027648926
0.25015260651935045,0.1746354103088379
0.23623489195458425,0.17741799354553223
0.2469783909168599,0.1801602840423584
0.24038578928091803,0.1829061508178711
0.2440483457453302,0.1856517791748047
0.253326822121841,0.18842387199401855
0.25430350384568423,0.19116663932800293
0.2398974484189964,0.1939105987548828
0.2489317543645464,0.1966540813446045
0.24087413014283965,0.1994307041168213
0.24160664143572208,0.20217442512512207
0.25210596996703694,0.20491361618041992
0.2518617995360761,0.2077009677886963
0.2374557441093883,0.21045422554016113
0.24771090220974235,0.21320319175720215
0.23940910755707479,0.2159442901611328
0.2420949822976437,0.21882271766662598
0.25210596996703694,0.2215595245361328
0.2530826516908802,0.22429871559143066
0.2398974484189964,0.22704362869262695
0.24990843608838964,0.22982239723205566
0.24258332315956532,0.23256731033325195
0.24282749359052613,0.2353072166442871
0.25479184470760585,0.2380843162536621
0.2540593334147234,0.24082088470458984
0.24111830057380046,0.24356889724731445
0.2506409473812721,0.2463088035583496
0.24331583445244775,0.2491135597229004
0.2440483457453302,0.2518587112426758
0.25479184470760585,0.25459837913513184
0.25430350384568423,0.2573723793029785
0.24136247100476127,0.2601206302642822
0.24795507264070316,0.26287007331848145
0.24014161884995722,0.26561713218688965
0.24014161884995722,0.26839518547058105
0.2513734586741545,0.2711374759674072
0.2506409473812721,0.2738800048828125
0.2398974484189964,0.2766249179840088
0.24526919790013424,0.279400110244751
0.24014161884995722,0.28214526176452637
0.2398974484189964,0.28489089012145996
0.25210596996703694,0.28766918182373047
0.2518617995360761,0.29040956497192383
0.24111830057380046,0.29316091537475586
0.24526919790013424,0.29593491554260254
0.24111830057380046,0.29872584342956543
0.24062995971187884,0.30147480964660645
0.2530826516908802,0.3042149543762207
0.25235014039799775,0.30695009231567383
0.24258332315956532,0.3097362518310547
0.2469783909168599,0.3124868869781494
0.244292516176291,0.31523966789245605
0.2420949822976437,0.31802964210510254
0.2538151629837626,0.32077741622924805
0.25235014039799775,0.3235161304473877
0.24380417531436938,0.3262629508972168
0.24575753876205586,0.3290367126464844
0.2423391527286045,0.3317830562591553
0.24038578928091803,0.33452486991882324
0.2538151629837626,0.3372983932495117
0.2552801855695275,0.3400418758392334
0.24575753876205586,0.3427891731262207
0.2469783909168599,0.3455328941345215
0.24624587962397748,0.348308801651001
0.24331583445244775,0.35108113288879395
0.25479184470760585,0.3538362979888916
0.2535709925528018,0.3565800189971924
0.24722256134782072,0.3593637943267822
0.24722256134782072,0.3621065616607666
0.2469783909168599,0.3648526668548584
0.24478085703821262,0.36765313148498535
0.2555243560004883,0.37039852142333984
0.2530826516908802,0.3731393814086914
0.24819924307166397,0.3758866786956787
0.24624587962397748,0.3786625862121582
0.2464900500549383,0.3814091682434082
0.24331583445244775,0.38415026664733887
0.2518617995360761,0.3868892192840576
0.25235014039799775,0.3896653652191162
0.24795507264070316,0.3924109935760498
0.24380417531436938,0.3951563835144043
0.24600170919301667,0.3979353904724121
0.24380417531436938,0.4006776809692383
0.2518617995360761,0.4034249782562256
0.2530826516908802,0.40616607666015625
0.2486875839335856,0.40895676612854004
0.24307166402148694,0.4117116928100586
0.2469783909168599,0.4144628047943115
0.24307166402148694,0.41724681854248047
0.2516176291051153,0.41999197006225586
0.25698937858625315,0.42273879051208496
0.2516176291051153,0.42548346519470215
0.24331583445244775,0.4283628463745117
0.24722256134782072,0.43111085891723633
0.24380417531436938,0.4338569641113281
0.2508851178122329,0.4365861415863037
0.2535709925528018,0.4393646717071533
0.25039677695031126,0.44210314750671387
0.2418508118666829,0.44484615325927734
0.2469783909168599,0.4476280212402344
0.24258332315956532,0.4503672122955322
0.24819924307166397,0.4531097412109375
0.2516176291051153,0.45584940910339355
0.24844341350262478,0.4586355686187744
0.23794408497130992,0.46138477325439453
0.24526919790013424,0.4641268253326416
0.24062995971187884,0.4668717384338379
0.24624587962397748,0.4696528911590576
0.2508851178122329,0.47238969802856445
0.24819924307166397,0.47513341903686523
0.23623489195458425,0.47791099548339844
0.24331583445244775,0.480663537979126
0.23916493712611397,0.4834132194519043
0.24136247100476127,0.4861600399017334
0.2467342204858991,0.48896002769470215
0.2464900500549383,0.49170827865600586
0.23428152850689776,0.4944579601287842
0.2418508118666829,0.49724507331848145
0.23623489195458425,0.49999308586120605
0.23940910755707479,0.5027444362640381
0.24624587962397748,0.5054914951324463
0.24624587962397748,0.5082690715789795
0.2325723354901721,0.5110244750976562
0.2420949822976437,0.5137877464294434
0.23599072152362344,0.5165314674377441
0.23892076669515316,0.5193207263946533
0.24624587962397748,0.5220654010772705
0.24575753876205586,0.5248105525970459
0.23086314247344641,0.5275881290435791
0.24111830057380046,0.5303330421447754
0.23452569893785857,0.5330727100372314
0.23550238066170182,0.5358219146728516
0.24575753876205586,0.5385987758636475
0.24526919790013424,0.5413477420806885
0.23135148333536804,0.5440959930419922
0.24111830057380046,0.5468411445617676
0.23330484678305452,0.5496211051940918
0.23452569893785857,0.5523660182952881
0.2445366866072518,0.5551178455352783
0.244292516176291,0.5579099655151367
0.2303748016115248,0.5606634616851807
0.23940910755707479,0.5634112358093262
0.23135148333536804,0.5661587715148926
0.23110731290440722,0.5689475536346436
0.24136247100476127,0.5717053413391113
0.2420949822976437,0.5744547843933105
0.2284214381638383,0.5772290229797363
0.23843242583323154,0.5799679756164551
0.2306189720424856,0.5827114582061768
0.2325723354901721,0.5857625007629395
0.2445366866072518,0.5885577201843262
0.24380417531436938,0.5913012027740479
0.2306189720424856,0.5940432548522949
0.24087413014283965,0.596794843673706
0.23354901721401533,0.5995743274688721
0.23623489195458425,0.6023211479187012
0.24575753876205586,0.6050686836242676
0.24771090220974235,0.6078732013702393
0.23403735807593695,0.6106348037719727
0.244292516176291,0.6133911609649658
0.23647906238554506,0.616138219833374
0.23867659626419235,0.6189193725585938
0.2508851178122329,0.6216590404510498
0.2518617995360761,0.6244068145751953
0.23892076669515316,0.627180814743042
0.24795507264070316,0.6299362182617188
0.2398974484189964,0.6326825618743896
0.24062995971187884,0.6354305744171143
0.25210596996703694,0.6382977962493896
0.2516176291051153,0.6410422325134277
0.23843242583323154,0.6437878608703613
0.2469783909168599,0.6465411186218262
0.23916493712611397,0.6493303775787354
0.24014161884995722,0.6520822048187256
0.2518617995360761,0.6548168659210205
0.2516176291051153,0.6575877666473389
0.23892076669515316,0.6603341102600098
0.24746673177878153,0.663076639175415
0.2396532779880356,0.6658189296722412
0.2420949822976437,0.668602466583252
0.2530826516908802,0.6713433265686035
0.2530826516908802,0.6740860939025879
0.24062995971187884,0.6768338680267334
0.2469783909168599,0.6796081066131592
0.24038578928091803,0.6823525428771973
0.24258332315956532,0.685096025466919
0.25479184470760585,0.6878745555877686
0.2540593334147234,0.6906154155731201
0.24307166402148694,0.6933581829071045
0.24795507264070316,0.6961028575897217
0.24380417531436938,0.6988794803619385
0.24258332315956532,0.7016208171844482
0.2535709925528018,0.7043559551239014
0.2518617995360761,0.7071001529693604
0.2418508118666829,0.7098886966705322
0.24526919790013424,0.7126505374908447
0.2423391527286045,0.7153925895690918
0.2398974484189964,0.7181820869445801
0.24990843608838964,0.7209329605102539
0.24942009522646802,0.7236804962158203
0.2423391527286045,0.7264237403869629
0.2445366866072518,0.7292265892028809
0.2420949822976437,0.731982946395874
0.24038578928091803,0.7347302436828613
0.2516176291051153,0.7375087738037109
0.25015260651935045,0.7402493953704834
0.2420949822976437,0.7429971694946289
0.2423391527286045,0.7457458972930908
0.24038578928091803,0.7485291957855225
0.2374557441093883,0.7512755393981934
0.2491759247955072,0.7540183067321777
0.2469783909168599,0.7567667961120605
0.23940910755707479,0.7595441341400146
0.2398974484189964,0.762291669845581
0.24038578928091803,0.7650344371795654
0.23623489195458425,0.7678165435791016
0.24624587962397748,0.7705602645874023
0.24526919790013424,0.7733099460601807
0.23916493712611397,0.7760562896728516
0.2374557441093883,0.7788269519805908
0.23647906238554506,0.7815718650817871
0.23452569893785857,0.784304141998291
0.24331583445244775,0.7870466709136963
0.24331583445244775,0.7898194789886475
0.24038578928091803,0.7925629615783691
0.23623489195458425,0.7953088283538818
0.23794408497130992,0.7980871200561523
0.23476986936881938,0.8008327484130859
0.24307166402148694,0.8035790920257568
0.2440483457453302,0.8063225746154785
0.24038578928091803,0.8090972900390625
0.23428152850689776,0.8118500709533691
0.2372115736784275,0.8146007061004639
0.23330484678305452,0.8173823356628418
0.24136247100476127,0.8201262950897217
0.24282749359052613,0.8228659629821777
0.24136247100476127,0.825613260269165
0.2325723354901721,0.8283901214599609
0.23867659626419235,0.8311367034912109
0.23428152850689776,0.8338863849639893
0.24014161884995722,0.8366360664367676
0.24526919790013424,0.8394193649291992
0.2423391527286045,0.842160701751709
0.2325723354901721,0.8449082374572754
0.2374557441093883,0.847820520401001
0.23354901721401533,0.8505687713623047
0.23916493712611397,0.8533525466918945
0.24258332315956532,0.8561058044433594
0.2423391527286045,0.8588871955871582
0.2330606763520937,0.8616359233856201
0.23867659626419235,0.8643832206726074
0.23452569893785857,0.8671505451202393
0.23940910755707479,0.869903564453125
0.2440483457453302,0.8726527690887451
0.24307166402148694,0.8754031658172607
0.23159565376632885,0.8781783580780029
0.23916493712611397,0.8809270858764648
0.2328165059211329,0.8836710453033447
0.2374557441093883,0.8864195346832275
0.244292516176291,0.889197587966919
0.24258332315956532,0.8919446468353271
0.23135148333536804,0.894690752029419
0.23916493712611397,0.8974742889404297
0.23428152850689776,0.9002189636230469
0.23818825540227073,0.9029619693756104
0.24502502746917343,0.9057037830352783
0.24478085703821262,0.908482551574707
0.2325723354901721,0.9112298488616943
0.24136247100476127,0.9139878749847412
0.235258210230741,0.9167370796203613
0.23818825540227073,0.9195196628570557
0.24624587962397748,0.9222614765167236
0.24624587962397748,0.9250097274780273
0.2325723354901721,0.927788496017456
0.2420949822976437,0.9305403232574463
0.235258210230741,0.9332864284515381
0.2372115736784275,0.9360358715057373
0.24600170919301667,0.9388189315795898
0.24600170919301667,0.9415698051452637
0.23159565376632885,0.9443137645721436
0.24136247100476127,0.9470620155334473
0.23403735807593695,0.9498376846313477
0.23574655109266263,0.9525842666625977
0.24600170919301667,0.9553303718566895
0.2467342204858991,0.9581084251403809
0.2330606763520937,0.9608609676361084
0.2440483457453302,0.9636094570159912
0.2374557441093883,0.9663498401641846
0.23843242583323154,0.9691445827484131
0.24990843608838964,0.9718961715698242
0.2513734586741545,0.9746439456939697
0.2372115736784275,0.9774234294891357
0.24575753876205586,0.9801747798919678
0.2374557441093883,0.9829239845275879
0.23916493712611397,0.9856724739074707
0.24966426565742883,0.9884614944458008
0.25039677695031126,0.9912009239196777
0.2374557441093883,0.9939439296722412
0.2464900500549383,0.9966902732849121
0.23916493712611397,0.9994688034057617
0.2396532779880356,1.002216100692749
0.25235014039799775,1.0049488544464111
0.24990843608838964,1.0077335834503174
0.23696740324746668,1.0104830265045166
0.2440483457453302,1.0132381916046143
0.2374557441093883,1.0159921646118164
0.23892076669515316,1.01878023147583
0.24990843608838964,1.0215320587158203
0.2508851178122329,1.0242729187011719
0.23843242583323154,1.0270161628723145
0.24526919790013424,1.0297942161560059
0.24014161884995722,1.0325498580932617
0.24038578928091803,1.0352940559387207
0.2506409473812721,1.0380668640136719
0.25015260651935045,1.0408034324645996
0.23867659626419235,1.0435481071472168
0.2445366866072518,1.0462958812713623
0.24038578928091803,1.0490739345550537
0.23916493712611397,1.0518226623535156
0.24990843608838964,1.0545735359191895
0.24966426565742883,1.0574378967285156
0.2396532779880356,1.060185194015503
0.24502502746917343,1.0629348754882812
0.24038578928091803,1.065680742263794
0.24014161884995722,1.0684607028961182
0.2518617995360761,1.0712087154388428
0.2516176291051153,1.0739514827728271
0.2420949822976437,1.0767033100128174
0.24526919790013424,1.0794882774353027
0.24136247100476127,1.0822422504425049
0.24014161884995722,1.085291862487793
0.2518617995360761,1.088101863861084
0.2518617995360761,1.090848445892334
0.2398974484189964,1.093592643737793
0.24502502746917343,1.0963504314422607
0.24014161884995722,1.0991325378417969
0.23892076669515316,1.101881504058838
0.24966426565742883,1.1046428680419922
0.24966426565742883,1.1074323654174805
0.23916493712611397,1.110180377960205
0.24331583445244775,1.1129329204559326
0.23916493712611397,1.115687608718872
0.23818825540227073,1.1184711456298828
0.24966426565742883,1.1212260723114014
0.2486875839335856,1.1239757537841797
0.23843242583323154,1.1267204284667969
0.2423391527286045,1.1295077800750732
0.23916493712611397,1.1322605609893799
0.23818825540227073,1.1350104808807373
0.24722256134782072,1.1377909183502197
0.24624587962397748,1.1405422687530518
0.23916493712611397,1.143280029296875
0.24038578928091803,1.146022081375122
0.23892076669515316,1.148796558380127
0.2374557441093883,1.1515381336212158
0.2491759247955072,1.1542840003967285
0.2469783909168599,1.1570301055908203
0.24087413014283965,1.1598093509674072
0.2420949822976437,1.162555456161499
0.24136247100476127,1.16530442237854
0.23916493712611397,1.1680850982666016
0.24966426565742883,1.1708345413208008
0.24844341350262478,1.1735846996307373
0.2423391527286045,1.1763231754302979
0.24111830057380046,1.179105281829834
0.2418508118666829,1.1818625926971436
0.23916493712611397,1.1846117973327637
0.2491759247955072,1.18739914894104
0.2491759247955072,1.1901524066925049
0.244292516176291,1.1929023265838623
0.24136247100476127,1.195652723312378
0.2440483457453302,1.1984403133392334
0.24258332315956532,1.2011888027191162
0.2535709925528018,1.2042043209075928
0.2535709925528018,1.2070643901824951
0.24575753876205586,1.2099072933197021
0.24795507264070316,1.2126624584197998
0.24722256134782072,1.21543288230896
0.24478085703821262,1.2182326316833496
0.2557685264314491,1.2209765911102295
0.25430350384568423,1.2237160205841064
0.24844341350262478,1.2264714241027832
0.24819924307166397,1.2292523384094238
0.2469783909168599,1.2319972515106201
0.24526919790013424,1.234748125076294
0.25698937858625315,1.2375283241271973
0.25479184470760585,1.2402727603912354
0.24990843608838964,1.2430226802825928
0.24819924307166397,1.2457761764526367
0.24795507264070316,1.248558759689331
0.2464900500549383,1.2513084411621094
0.2562568672933707,1.254049301147461
0.2557685264314491,1.2567970752716064
0.25015260651935045,1.2595751285552979
0.24722256134782072,1.2623238563537598
0.2491759247955072,1.2650787830352783
0.24624587962397748,1.2679550647735596
0.25454767427664504,1.270704746246338
0.25430350384568423,1.2734405994415283
0.2489317543645464,1.2761924266815186
0.24526919790013424,1.2789866924285889
0.24600170919301667,1.2817480564117432
0.24136247100476127,1.2844903469085693
0.25015260651935045,1.2872629165649414
0.2508851178122329,1.2900066375732422
0.2469783909168599,1.292755126953125
0.2420949822976437,1.2955009937286377
0.24624587962397748,1.298280954360962
0.24307166402148694,1.3010306358337402
0.25015260651935045,1.3037631511688232
0.25039677695031126,1.3065011501312256
0.24746673177878153,1.309288740158081
0.24062995971187884,1.31203293800354
0.24575753876205586,1.3147976398468018
0.24136247100476127,1.3175935745239258
0.24771090220974235,1.320350170135498
0.25039677695031126,1.3230845928192139
0.2469783909168599,1.3258373737335205
0.23818825540227073,1.3286490440368652
0.24380417531436938,1.331399917602539
0.24038578928091803,1.3341407775878906
0.24624587962397748,1.3368861675262451
0.2491759247955072,1.3396687507629395
0.24722256134782072,1.3424170017242432
0.23818825540227073,1.3451673984527588
0.24307166402148694,1.3479554653167725
0.23867659626419235,1.3507044315338135
0.2491759247955072,1.3534655570983887
0.25015260651935045,1.3562076091766357
0.2508851178122329,1.3589954376220703
0.2398974484189964,1.3617489337921143
0.24771090220974235,1.364494800567627
0.24307166402148694,1.367290735244751
0.2508851178122329,1.3700323104858398
0.2518617995360761,1.3727715015411377
0.2508851178122329,1.375516653060913
0.23843242583323154,1.3783059120178223
0.24771090220974235,1.3810575008392334
0.2423391527286045,1.3838000297546387
0.2464900500549383,1.3865461349487305
0.25283848125991937,1.3893253803253174
0.25259431082895856,1.392066240310669
0.23916493712611397,1.3948140144348145
0.24990843608838964,1.3976030349731445
0.244292516176291,1.400346279144287
0.24722256134782072,1.4030976295471191
0.25503601513856666,1.4058399200439453
0.25479184470760585,1.4086155891418457
0.24038578928091803,1.411365270614624
0.25015260651935045,1.4140980243682861
0.24331583445244775,1.4168634414672852
0.2464900500549383,1.419658899307251
0.2560126968624099,1.4224021434783936
0.2555243560004883,1.425149917602539
0.24087413014283965,1.4279379844665527
0.2508851178122329,1.430673360824585
0.2440483457453302,1.433417797088623
0.24526919790013424,1.4361672401428223
0.25430350384568423,1.4389398097991943
0.2540593334147234,1.4416849613189697
0.24111830057380046,1.4444301128387451
0.2491759247955072,1.447228193283081
0.24136247100476127,1.4499857425689697
0.24526919790013424,1.4527325630187988
0.2560126968624099,1.4554955959320068
0.2562568672933707,1.458282709121704
0.2423391527286045,1.4610280990600586
0.25210596996703694,1.4637718200683594
0.24502502746917343,1.4665195941925049
0.24600170919301667,1.469303846359253
0.2555243560004883,1.4720478057861328
0.2560126968624099,1.474787950515747
0.24307166402148694,1.4776732921600342
0.2518617995360761,1.480412483215332
0.24331583445244775,1.4831557273864746
0.2445366866072518,1.4859015941619873
0.2557685264314491,1.488684892654419
0.25698937858625315,1.4914193153381348
0.24331583445244775,1.4941637516021729
0.2516176291051153,1.496901273727417
0.2440483457453302,1.4996821880340576
0.24551336833109505,1.5024316310882568
0.25698937858625315,1.505173683166504
0.25674520815529234,1.5079500675201416
0.24307166402148694,1.510695219039917
0.2508851178122329,1.5134317874908447
0.24478085703821262,1.5161988735198975
0.24624587962397748,1.5189952850341797
0.2577218898791356,1.5217385292053223
0.2579660603100964,1.524475336074829
0.24600170919301667,1.527318000793457
0.2518617995360761,1.5300610065460205
0.24600170919301667,1.5328118801116943
0.24600170919301667,1.5355584621429443
0.25674520815529234,1.538332223892212
0.2557685264314491,1.5410749912261963
0.2445366866072518,1.5438165664672852
0.24990843608838964,1.546574592590332
0.24526919790013424,1.5493524074554443
0.24526919790013424,1.5520973205566406
0.2586985716029788,1.5548744201660156
0.25943108289586125,1.5576565265655518
0.2491759247955072,1.560403823852539
0.253326822121841,1.5631420612335205
0.25039677695031126,1.5658807754516602
0.24844341350262478,1.5686843395233154
0.25894274203393963,1.5714294910430908
0.2579660603100964,1.5741701126098633
0.2489317543645464,1.5769269466400146
0.2513734586741545,1.5797061920166016
0.2489317543645464,1.5824623107910156
0.2469783909168599,1.5855166912078857
0.25894274203393963,1.5883100032806396
0.2586985716029788,1.5910544395446777
0.2464900500549383,1.5937952995300293
0.2511292882431937,1.596536636352539
0.2469783909168599,1.5993177890777588
0.24575753876205586,1.6020610332489014
0.2562568672933707,1.604799509048462
0.25479184470760585,1.6075761318206787
0.24526919790013424,1.6103227138519287
0.24819924307166397,1.6130645275115967
0.2440483457453302,1.6158263683319092
0.24111830057380046,1.6186432838439941
0.2511292882431937,1.6213939189910889
0.25015260651935045,1.6241259574890137
0.24282749359052613,1.6268715858459473
0.24600170919301667,1.6296532154083252
0.24380417531436938,1.6323997974395752
0.2423391527286045,1.635143518447876
0.25235014039799775,1.6379241943359375
0.2506409473812721,1.6406590938568115
0.24380417531436938,1.6434063911437988
0.2440483457453302,1.64615797996521
0.2423391527286045,1.6489362716674805
0.2398974484189964,1.6516776084899902
0.2508851178122329,1.6544263362884521
0.24942009522646802,1.6572024822235107
0.24307166402148694,1.6599550247192383
0.2423391527286045,1.6627006530761719
0.2420949822976437,1.6654460430145264
0.2398974484189964,1.6682288646697998
0.24966426565742883,1.6709821224212646
0.24844341350262478,1.6737275123596191
0.24258332315956532,1.6764752864837646
0.24038578928091803,1.679255485534668
0.2423391527286045,1.681993007659912
0.23867659626419235,1.6847286224365234
0.24819924307166397,1.6876180171966553
0.2491759247955072,1.6903743743896484
0.244292516176291,1.6931209564208984
0.2418508118666829,1.6958684921264648
0.2423391527286045,1.6986467838287354
0.23867659626419235,1.7013919353485107
0.24819924307166397,1.7041351795196533
0.24771090220974235,1.7068779468536377
0.24356000488340857,1.7096593379974365
0.23892076669515316,1.7124035358428955
0.2420949822976437,1.715156078338623
0.23867659626419235,1.7179620265960693
0.2464900500549383,1.7207186222076416
0.24771090220974235,1.723459005355835
0.24502502746917343,1.7262084484100342
0.23818825540227073,1.728989839553833
0.2423391527286045,1.7317347526550293
0.23916493712611397,1.7344810962677002
0.2464900500549383,1.7372586727142334
0.2489317543645464,1.7400124073028564
0.24575753876205586,1.7427594661712646
0.23818825540227073,1.7455120086669922
0.2418508118666829,1.7482914924621582
0.23867659626419235,1.7510387897491455
0.24551336833109505,1.7537853717803955
0.24795507264070316,1.756533145904541
0.2469783909168599,1.759312391281128
0.23794408497130992,1.7620608806610107
0.2440483457453302,1.7647974491119385
0.24087413014283965,1.7675714492797852
0.24575753876205586,1.770317554473877
0.24990843608838964,1.7730674743652344
0.24819924307166397,1.7758114337921143
0.23672323281650587,1.77858567237854
0.24526919790013424,1.7813291549682617
0.24087413014283965,1.7840688228607178
0.24771090220974235,1.786813497543335
0.2557685264314491,1.7895936965942383
0.2530826516908802,1.79233980178833
0.24038578928091803,1.7950870990753174
0.24942009522646802,1.7978706359863281
0.24331583445244775,1.8006105422973633
0.2464900500549383,1.8033523559570312
0.2518617995360761,1.8060870170593262
0.24990843608838964,1.8088865280151367
0.23696740324746668,1.811631441116333
0.2464900500549383,1.814378023147583
0.24062995971187884,1.8171591758728027
0.24307166402148694,1.819913387298584
0.2516176291051153,1.8226516246795654
0.2508851178122329,1.8253934383392334
0.2372115736784275,1.8281822204589844
0.24771090220974235,1.8309218883514404
0.24087413014283965,1.8336632251739502
0.24136247100476127,1.8364012241363525
0.2511292882431937,1.8391716480255127
0.25039677695031126,1.8419079780578613
0.23623489195458425,1.8446574211120605
0.24575753876205586,1.8474359512329102
0.23818825540227073,1.850184679031372
0.23940910755707479,1.85292387008667
0.25015260651935045,1.8556652069091797
0.2508851178122329,1.8584342002868652
0.2374557441093883,1.861175298690796
0.24575753876205586,1.8639190196990967
0.23867659626419235,1.8666629791259766
0.2423391527286045,1.869431734085083
0.25259431082895856,1.8721718788146973
0.2535709925528018,1.8749098777770996
0.24038578928091803,1.8776915073394775
0.24722256134782072,1.8804423809051514
0.2396532779880356,1.8831911087036133
0.24038578928091803,1.8859312534332275
0.2516176291051153,1.888704776763916
0.25210596996703694,1.8914413452148438
0.23940910755707479,1.8941895961761475
0.24722256134782072,1.8969364166259766
0.24038578928091803,1.8997995853424072
0.2398974484189964,1.9025418758392334
0.24966426565742883,1.9053270816802979
0.24990843608838964,1.9081134796142578
0.23794408497130992,1.910860300064087
0.24575753876205586,1.9136059284210205
0.23794408497130992,1.916353702545166
0.23916493712611397,1.919137954711914
0.2518617995360761,1.9218854904174805
0.2516176291051153,1.9246265888214111
0.24014161884995722,1.9274358749389648
0.24624587962397748,1.9301764965057373
0.24136247100476127,1.9329235553741455
0.23940910755707479,1.9356651306152344
0.24966426565742883,1.9384486675262451
0.24966426565742883,1.9411988258361816
0.23843242583323154,1.9439361095428467
0.24258332315956532,1.9466831684112549
0.23843242583323154,1.9494566917419434
0.2376999145403491,1.9522042274475098
0.24990843608838964,1.954951524734497
0.24819924307166397,1.9577245712280273
0.23867659626419235,1.960465669631958
0.24258332315956532,1.9632079601287842
0.24111830057380046,1.9659528732299805
0.23843242583323154,1.96872878074646
0.2491759247955072,1.9714820384979248
0.2469783909168599,1.9742259979248047
0.23843242583323154,1.9769668579101562
0.24038578928091803,1.9797449111938477
0.23916493712611397,1.982494831085205
0.23696740324746668,1.9852352142333984
0.24844341350262478,1.9880154132843018
0.24624587962397748,1.9907572269439697
0.24136247100476127,1.9934971332550049
0.24307166402148694,1.996241569519043
0.24502502746917343,1.9990229606628418
0.24062995971187884,2.001768112182617
0.24990843608838964,2.0045230388641357
0.24844341350262478,2.0072951316833496
0.24307166402148694,2.0100436210632324
0.24111830057380046,2.0127952098846436
0.24014161884995722,2.015542984008789
0.23794408497130992,2.0183286666870117
0.24795507264070316,2.0210793018341064
0.2491759247955072,2.023822546005249
0.2418508118666829,2.026561737060547
0.23867659626419235,2.0293467044830322
0.24038578928091803,2.032085418701172
0.23647906238554506,2.034830331802368
0.24502502746917343,2.0376110076904297
0.24600170919301667,2.0403549671173096
0.24136247100476127,2.0430991649627686
0.23647906238554506,2.045842409133911
0.23916493712611397,2.0487496852874756
0.23574655109266263,2.0514934062957764
0.2440483457453302,2.0542399883270264
0.2440483457453302,2.056983470916748
0.2398974484189964,2.0597546100616455
0.23672323281650587,2.06249737739563
0.2423391527286045,2.065237522125244
0.23867659626419235,2.06801438331604
0.24502502746917343,2.0707643032073975
0.2469783909168599,2.0735137462615967
0.2420949822976437,2.0762624740600586
0.235258210230741,2.0790393352508545
0.2418508118666829,2.081787109375
0.23794408497130992,2.0848350524902344
0.24966426565742883,2.088005542755127
0.24990843608838964,2.0910756587982178
0.24258332315956532,2.0941102504730225
0.24795507264070316,2.0969603061676025
0.24258332315956532,2.1002368927001953
0.24331583445244775,2.103421926498413
0.2511292882431937,2.10628080368042
0.2508851178122329,2.1092708110809326
0.24014161884995722,2.1123318672180176
0.24771090220974235,2.1155054569244385
0.2440483457453302,2.1185991764068604
0.25479184470760585,2.12172269821167
0.2560126968624099,2.1248667240142822
0.24478085703821262,2.1280949115753174
0.24990843608838964,2.1312057971954346
0.2445366866072518,2.134300708770752
0.24819924307166397,2.135890007019043
0.2535709925528018,2.13754940032959
0.2518617995360761,2.1391384601593018
0.25894274203393963,2.140716314315796
0.2557685264314491,2.142303705215454
0.24819924307166397,2.143895387649536
0.25039677695031126,2.1453592777252197
0.25454767427664504,2.146919012069702
0.2530826516908802,2.1486268043518066
0.25015260651935045,2.150189161300659
0.2511292882431937,2.151700973510742
0.25723354901721396,2.153120994567871
0.26407032108411665,2.154780387878418
0.2628494689293126,2.1563680171966553
0.27041875228909773,2.1579384803771973
0.2633378097912342,2.1593618392944336
0.25503601513856666,2.1608574390411377
0.2626052984983518,2.1624245643615723
0.2645586619460383,2.1640141010284424
0.2628494689293126,2.165566921234131
0.2611402759125869,2.1672611236572266
0.26187278720546936,2.168849229812622
0.271395434012941,2.17043399810791
0.2716396044439018,2.172020435333252
0.2738371383225491,2.1735973358154297
0.27530216090831394,2.175170421600342
0.2672445366866072,2.1767849922180176
0.2645586619460383,2.1784212589263916
0.27066292272005854,2.179969072341919
0.267488707117568,2.1815884113311768
0.26407032108411665,2.1831932067871094
0.26382615065315584,2.1846559047698975
0.2677328775485288,2.186215877532959
0.27554633133927475,2.1879019737243652
0.2743254791844707,2.189471483230591
0.2811622512513734,2.1910605430603027
0.2745696496154315,2.192498207092285
0.267488707117568,2.1939663887023926
0.271395434012941,2.195634365081787
0.2745696496154315,2.197268009185791
0.2723721157367842,2.198692560195923
0.27041875228909773,2.200112819671631
0.2721279453058234,2.201692581176758
0.2772555243560004,2.203301429748535
0.28287144426809907,2.2047982215881348
0.2811622512513734,2.2063868045806885
0.28702234159443285,2.2080957889556885
0.27823220607984367,2.2097039222717285
0.2716396044439018,2.211315631866455
0.27749969478696124,2.2129297256469727
0.27530216090831394,2.2145440578460693
0.2718837748748626,2.2161471843719482
0.2745696496154315,2.2178120613098145
0.27749969478696124,2.219290256500244
0.2879990233182761,2.220970869064331
0.28506897814674637,2.2226037979125977
0.2926382615065315,2.2240664958953857
0.2879990233182761,2.225637912750244
0.27969722866560853,2.2271173000335693
0.2811622512513734,2.22886323928833
0.285557319008668,2.2305049896240234
0.2833597851300207,2.231943368911743
0.2809180808204126,2.233346700668335
0.28238310340617745,2.235013723373413
0.2921499206446099,2.2379636764526367
0.29605664753998284,2.2407805919647217
0.28287144426809907,2.243565559387207
0.28042973995849096,2.246615409851074
0.276523013063118,2.2498531341552734
0.28018556952753015,2.2528061866760254
0.2953241362471004,2.255952835083008
0.2921499206446099,2.259208917617798
0.2772555243560004,2.262321949005127
0.2789647173727261,2.2654755115509033
0.2772555243560004,2.268707513809204
0.30094005615919905,2.2718563079833984
0.2999633744353558,2.27496600151062
0.2853131485777072,2.2781333923339844
0.3016725674520815,2.28119158744812
0.2948357953851788,2.284292697906494
0.3109510438285923,2.2875192165374756
0.3182761567574166,2.2903969287872314
0.3089976803809058,2.293421745300293
0.3160786228787693,2.2962732315063477
0.3224270540837504,2.299150228500366
0.31681113417165174,2.3019046783447266
0.3224270540837504,2.304649829864502
0.31925283848125985,2.307443141937256
0.3116835551214747,2.3101911544799805
0.3068001465022585,2.3129372596740723
0.304846783054572,2.3156802654266357
0.3046026126236112,2.3185698986053467
0.3153461115858869,2.321329355239868
0.31241606641435715,2.3240861892700195
0.3107068733976315,2.326828718185425
0.30777682822610175,2.3296244144439697
0.3043584421926504,2.332371473312378
0.30728848736418013,2.3351149559020996
0.31681113417165174,2.3378913402557373
0.31729947503357336,2.34063458442688
0.31436942986204364,2.3433730602264404
0.3089976803809058,2.3461177349090576
0.3094860212428274,2.3489017486572266
0.3024050787449639,2.351653575897217
0.30582346477841527,2.354412078857422
0.30557929434745446,2.357208728790283
0.30069588572823824,2.3599541187286377
0.2950799658161396,2.362701654434204
0.29874252228055176,2.3654417991638184
0.2923940910755707,2.3682236671447754
0.2967891588328653,2.370971918106079
0.29874252228055176,2.373713970184326
0.2933707727994139,2.3764584064483643
0.2853131485777072,2.3792412281036377
0.28921987547308015,2.3819775581359863
0.2882431937492369,2.384723663330078
0.30118422659015986,2.387502431869507
0.30264924917592473,2.3902456760406494
0.30362593089976797,2.392991304397583
0.2931266023684531,2.39573073387146
0.29117323892076663,2.3985211849212646
0.2831156146990599,2.40126371383667
0.27359296789158827,2.4040064811706543
0.272616286167745,2.406748056411743
0.2772555243560004,2.409557819366455
0.2655353436698815,2.4123075008392334
0.2699304114271761,2.4150502681732178
0.2655353436698815,2.417837381362915
0.27115126358198016,2.420586347579956
0.27530216090831394,2.423349142074585
0.2716396044439018,2.426090717315674
0.2599194237577829,2.428870677947998
0.272616286167745,2.4316132068634033
0.26651202539372476,2.4343535900115967
0.27041875228909773,2.4370925426483154
0.27310462702966665,2.4398715496063232
0.2672445366866072,2.442614793777466
0.25698937858625315,2.4453535079956055
0.2672445366866072,2.4481310844421387
0.2606519350506653,2.4508745670318604
0.26407032108411665,2.4536120891571045
0.2738371383225491,2.4563543796539307
0.27554633133927475,2.4591307640075684
0.2604077646197045,2.4618794918060303
0.27041875228909773,2.46462082862854
0.26407032108411665,2.4674015045166016
0.26675619582468557,2.4701411724090576
0.2694420705652545,2.4728891849517822
0.2701745818581369,2.4756338596343994
0.25479184470760585,2.478409767150879
0.2633378097912342,2.481153964996338
0.2555243560004883,2.483896493911743
0.2626052984983518,2.4866445064544678
0.27969722866560853,2.489511489868164
0.281650592113295,2.4922502040863037
0.267488707117568,2.4949934482574463
0.2811622512513734,2.497772216796875
0.27359296789158827,2.500513792037964
0.272616286167745,2.503248691558838
0.2794530582346477,2.505988359451294
0.2787205469417653,2.5087621212005615
0.2679770479794896,2.5114970207214355
0.272616286167745,2.514246702194214
0.26382615065315584,2.516981363296509
0.2582102307410572,2.5197551250457764
0.2694420705652545,2.522510051727295
0.267488707117568,2.525257110595703
0.2535709925528018,2.5281453132629395
0.26407032108411665,2.5308940410614014
0.2577218898791356,2.5336337089538574
0.2540593334147234,2.536370038986206
0.26162861677450855,2.5391457080841064
0.26138444634354774,2.5419182777404785
0.24795507264070316,2.544668436050415
0.2538151629837626,2.5474448204040527
0.24600170919301667,2.5501930713653564
0.24258332315956532,2.5529325008392334
0.2535709925528018,2.555673360824585
0.2538151629837626,2.558444023132324
0.24136247100476127,2.5611867904663086
0.2464900500549383,2.563931465148926
0.2398974484189964,2.5666723251342773
0.2420949822976437,2.569456100463867
0.25210596996703694,2.572192430496216
0.2518617995360761,2.574934482574463
0.24307166402148694,2.5777039527893066
0.24771090220974235,2.580449104309082
0.2423391527286045,2.583189010620117
0.23916493712611397,2.5862488746643066
0.24819924307166397,2.5890417098999023
0.2491759247955072,2.5917882919311523
0.2398974484189964,2.5945379734039307
0.24526919790013424,2.5973105430603027
0.2398974484189964,2.6000614166259766
0.23086314247344641,2.602808952331543
0.24136247100476127,2.6055519580841064
0.2423391527286045,2.608327627182007
0.2325723354901721,2.6110715866088867
0.23843242583323154,2.61381459236145
0.2325723354901721,2.616553783416748
0.23013063118056398,2.6193363666534424
0.24307166402148694,2.6220834255218506
0.2423391527286045,2.624831199645996
0.23232816505921128,2.627624988555908
0.2376999145403491,2.630371332168579
0.235258210230741,2.6331188678741455
0.23354901721401533,2.635859966278076
0.24380417531436938,2.6386361122131348
0.24307166402148694,2.641376256942749
0.23452569893785857,2.644120216369629
0.235258210230741,2.6468684673309326
0.23013063118056398,2.6496787071228027
0.23159565376632885,2.652426242828369
0.22744475643999507,2.655170202255249
0.2284214381638383,2.6579511165618896
0.22085215480405318,2.6606953144073486
0.22329385911366129,2.6634361743927
0.2215846660969356,2.6661815643310547
0.21963130264924913,2.6689581871032715
0.2281772677328775,2.671717882156372
0.22768892687095588,2.674468517303467
0.22060798437309237,2.6772379875183105
0.221096325235014,2.6799890995025635
0.21816628006348426,2.6827378273010254
0.21596874618483697,2.685485363006592
0.2257355634232694,2.6882660388946533
0.22500305213038696,2.691011428833008
0.21865462092540588,2.6937599182128906
0.21792210963252345,2.696500539779663
0.22036381394213156,2.6992719173431396
0.221096325235014,2.702009916305542
0.23013063118056398,2.704756498336792
0.22939811988768155,2.707536220550537
0.22475888169942615,2.710280656814575
0.22304968868270048,2.713026285171509
0.22427054083750453,2.715768814086914
0.2213404956659748,2.7185447216033936
0.22866560859479912,2.7212910652160645
0.2281772677328775,2.7240514755249023
0.2257355634232694,2.726806640625
0.2215846660969356,2.729586601257324
0.22451471126846534,2.732335090637207
0.22256134782077885,2.7350780963897705
0.22964229031864236,2.737948179244995
0.23086314247344641,2.740694999694824
0.2281772677328775,2.7434401512145996
0.22182883652789642,2.7461764812469482
0.2215846660969356,2.748952627182007
0.21865462092540588,2.751694679260254
0.2257355634232694,2.7544405460357666
0.22768892687095588,2.757202386856079
0.2284214381638383,2.7599470615386963
0.221096325235014,2.7626912593841553
0.22329385911366129,2.7654316425323486
0.2191429617873275,2.768231153488159
0.22256134782077885,2.770984172821045
0.22304968868270048,2.773726224899292
0.21963130264924913,2.7764763832092285
0.21279453058234643,2.7792539596557617
0.2215846660969356,2.7819972038269043
0.2167012574777194,2.7847421169281006
0.2235380295446221,2.7875277996063232
0.22768892687095588,2.7902679443359375
0.2257355634232694,2.7930185794830322
0.21621291661579778,2.7957723140716553
0.22475888169942615,2.798548460006714
0.221096325235014,2.8012917041778564
0.2235380295446221,2.8040318489074707
0.22915394945672074,2.806774616241455
0.2281772677328775,2.809558868408203
0.21596874618483697,2.812314033508301
0.22329385911366129,2.815058708190918
0.2191429617873275,2.817836046218872
0.2215846660969356,2.820580005645752
0.22890977902575993,2.823321580886841
0.22695641557807344,2.8260812759399414
0.21572457575387616,2.8288733959198
0.22866560859479912,2.831615924835205
0.22549139299230858,2.8343608379364014
0.2303748016115248,2.837108850479126
0.2374557441093883,2.83988618850708
0.23818825540227073,2.8426382541656494
0.22451471126846534,2.8453876972198486
0.23086314247344641,2.8481688499450684
0.2284214381638383,2.8509199619293213
0.23550238066170182,2.853656768798828
0.2396532779880356,2.8563997745513916
0.24551336833109505,2.859184980392456
0.23232816505921128,2.8619418144226074
0.2440483457453302,2.8646912574768066
0.2376999145403491,2.867469310760498
0.24038578928091803,2.870215892791748
0.2511292882431937,2.8729498386383057
0.2516176291051153,2.875692129135132
0.23818825540227073,2.87848162651062
0.24844341350262478,2.8812294006347656
0.2423391527286045,2.8839712142944336
0.24526919790013424,2.8867204189300537
0.25698937858625315,2.8895254135131836
0.2586985716029788,2.8922994136810303
0.2445366866072518,2.895050525665283
0.2557685264314491,2.897829055786133
0.24942009522646802,2.90057635307312
0.253326822121841,2.903322696685791
0.2648028323769991,2.90606427192688
0.25747771944817477,2.908845901489258
0.2586985716029788,2.911591053009033
0.26870955927237206,2.9143307209014893
0.2691979001342937,2.9170801639556885
0.2655353436698815,2.9198601245880127
0.27505799047735313,2.9225988388061523
0.2831156146990599,2.925361394882202
0.2701745818581369,2.9281582832336426
0.276523013063118,2.9309027194976807
0.26870955927237206,2.9336435794830322
0.2716396044439018,2.9363865852355957
0.28506897814674637,2.93916392326355
0.28677817116347204,2.9419028759002686
0.2762788426321572,2.9446487426757812
0.2833597851300207,2.947516679763794
0.2762788426321572,2.9502694606781006
0.2738371383225491,2.953012704849243
0.28238310340617745,2.955747604370117
0.28506897814674637,2.958528518676758
0.2743254791844707,2.961272716522217
0.27774386521792205,2.9640159606933594
0.27286045659870584,2.966759204864502
0.2745696496154315,2.9695451259613037
0.2833597851300207,2.9722821712493896
0.28287144426809907,2.97502064704895
0.27041875228909773,2.9778048992156982
0.272616286167745,2.9805476665496826
0.267488707117568,2.983290195465088
0.2670003662556464,2.9860334396362305
0.27579050177023556,2.9888193607330322
0.27505799047735313,2.991563081741333
0.26358198022219503,2.994310140609741
0.26675619582468557,2.997056007385254
0.26382615065315584,2.999829053878784
0.25747771944817477,3.0025718212127686
0.27554633133927475,3.0053155422210693
0.27530216090831394,3.0081255435943604
0.26358198022219503,3.0108728408813477
0.2655353436698815,3.0136141777038574
0.26187278720546936,3.0163540840148926
0.2577218898791356,3.019138813018799
0.2645586619460383,3.021885871887207
0.26211695763643017,3.024625301361084
0.25503601513856666,3.0274224281311035
0.2518617995360761,3.0301761627197266
0.24722256134782072,3.0329322814941406
0.2626052984983518,3.0356671810150146
0.2809180808204126,3.0384509563446045
0.2860456598705896,3.041187286376953
0.2921499206446099,3.0439279079437256
0.28751068245635447,3.046671152114868
0.2862898303015504,3.0494544506073
0.27749969478696124,3.0522000789642334
0.28213893297521664,3.054940700531006
0.2787205469417653,3.0577192306518555
0.272616286167745,3.0604612827301025
0.2696862409962153,3.0631988048553467
0.2694420705652545,3.065938949584961
0.26651202539372476,3.068718194961548
0.27505799047735313,3.0714669227600098
0.27334879746062746,3.074214458465576
0.2716396044439018,3.0769588947296143
0.26577951410084233,3.0797319412231445
0.2645586619460383,3.0824756622314453
0.2560126968624099,3.085526943206787
0.2599194237577829,3.088311195373535
0.2586985716029788,3.091055393218994
0.2516176291051153,3.09379506111145
0.2516176291051153,3.0965309143066406
0.2582102307410572,3.0993099212646484
0.2557685264314491,3.102050304412842
0.2630936393602734,3.104789972305298
0.26162861677450855,3.1075687408447266
0.25747771944817477,3.110318660736084
0.2538151629837626,3.113067865371704
0.25503601513856666,3.1158173084259033
0.24819924307166397,3.118594169616699
0.25210596996703694,3.121335983276367
0.25235014039799775,3.1240735054016113
0.24819924307166397,3.1268362998962402
0.24258332315956532,3.129657745361328
0.24819924307166397,3.1324033737182617
0.24819924307166397,3.135150909423828
0.2599194237577829,3.1379337310791016
0.2628494689293126,3.140679359436035
0.26138444634354774,3.143423080444336
0.25430350384568423,3.1461641788482666
0.2555243560004883,3.148937940597534
0.24795507264070316,3.151686668395996
0.25235014039799775,3.1544265747070312
0.2562568672933707,3.1572835445404053
0.25259431082895856,3.160033702850342
0.2440483457453302,3.16277813911438
0.2538151629837626,3.16552734375
0.25259431082895856,3.1683037281036377
0.2691979001342937,3.1710469722747803
0.2743254791844707,3.173790693283081
0.28213893297521664,3.176530122756958
0.2748138200463923,3.1793129444122314
0.2784763765108045,3.1827197074890137
0.2745696496154315,3.1854920387268066
0.285557319008668,3.188279867172241
0.28433646685386393,3.1910245418548584
0.28018556952753015,3.1937694549560547
0.2748138200463923,3.196516275405884
0.27554633133927475,3.1992995738983154
0.2721279453058234,3.2020394802093506
0.28042973995849096,3.2047903537750244
0.28238310340617745,3.2075724601745605
0.2738371383225491,3.2103185653686523
0.26870955927237206,3.2130627632141113
0.27041875228909773,3.2158024311065674
0.26187278720546936,3.218576192855835
0.26211695763643017,3.221320390701294
0.26187278720546936,3.22406005859375
0.25698937858625315,3.226820707321167
0.25039677695031126,3.229642868041992
0.2562568672933707,3.232400417327881
0.2538151629837626,3.2351393699645996
0.25918691246490044,3.2379279136657715
0.25967525332682206,3.2406790256500244
0.25698937858625315,3.2434611320495605
0.24966426565742883,3.2462143898010254
0.25283848125991937,3.2490196228027344
0.2491759247955072,3.251770257949829
0.2560126968624099,3.254512310028076
0.25894274203393963,3.2572970390319824
0.2560126968624099,3.260042428970337
0.24795507264070316,3.262800931930542
0.25210596996703694,3.2655413150787354
0.2489317543645464,3.26833438873291
0.25479184470760585,3.2710800170898438
0.25747771944817477,3.273824691772461
0.2557685264314491,3.2765655517578125
0.24478085703821262,3.2793519496917725
0.24990843608838964,3.282109260559082
0.24795507264070316,3.2853598594665527
0.25894274203393963,3.2881364822387695
0.2608961054816261,3.290884494781494
0.26187278720546936,3.293625831604004
0.2530826516908802,3.2963671684265137
0.25283848125991937,3.2991421222686768
0.24526919790013424,3.301884412765503
0.25235014039799775,3.3046276569366455
0.2511292882431937,3.3073956966400146
0.25039677695031126,3.3101398944854736
0.24526919790013424,3.312891960144043
0.2535709925528018,3.3156394958496094
0.2516176291051153,3.3184196949005127
0.2582102307410572,3.3211677074432373
0.25894274203393963,3.3239150047302246
0.25674520815529234,3.3266642093658447
0.24795507264070316,3.3294613361358643
0.2540593334147234,3.3322055339813232
0.24844341350262478,3.334954023361206
0.2506409473812721,3.33773136138916
0.25430350384568423,3.340481996536255
0.2518617995360761,3.3432321548461914
0.24062995971187884,3.3459792137145996
0.2491759247955072,3.3487613201141357
0.24575753876205586,3.3515095710754395
0.25283848125991937,3.354257106781006
0.25698937858625315,3.3570027351379395
0.2577218898791356,3.3597846031188965
0.24575753876205586,3.3625385761260986
0.25698937858625315,3.3652851581573486
0.2508851178122329,3.368178129196167
0.2530826516908802,3.3709325790405273
0.2582102307410572,3.3736770153045654
0.25967525332682206,3.376420259475708
0.24819924307166397,3.379204750061035
0.25674520815529234,3.381962776184082
0.2516176291051153,3.384711503982544
0.25967525332682206,3.387488842010498
0.26651202539372476,3.3902294635772705
0.2648028323769991,3.3929786682128906
0.2511292882431937,3.395721197128296
0.2611402759125869,3.3985044956207275
0.2538151629837626,3.401257276535034
0.2560126968624099,3.403998374938965
0.2652911732389207,3.4067490100860596
0.26431449151507747,3.409524917602539
0.2516176291051153,3.412264823913574
0.2577218898791356,3.4150102138519287
0.2516176291051153,3.417787551879883
0.2555243560004883,3.420529842376709
0.2645586619460383,3.4232795238494873
0.2699304114271761,3.4260289669036865
0.2579660603100964,3.4288268089294434
0.2677328775485288,3.4315884113311768
0.2601635941887437,3.4343366622924805
0.2599194237577829,3.4371042251586914
0.2679770479794896,3.4399044513702393
0.26870955927237206,3.442650556564331
0.25698937858625315,3.4453930854797363
0.2652911732389207,3.448173761367798
0.25698937858625315,3.4509191513061523
0.2555243560004883,3.453660726547241
0.2648028323769991,3.456413745880127
0.2648028323769991,3.4591994285583496
0.2508851178122329,3.4619507789611816
0.25943108289586125,3.464700698852539
0.2518617995360761,3.4674813747406006
0.2508851178122329,3.470233678817749
0.26187278720546936,3.472980260848999
0.2608961054816261,3.4757273197174072
0.24600170919301667,3.478511333465576
0.2555243560004883,3.4812543392181396
0.24771090220974235,3.484006404876709
0.24795507264070316,3.486755132675171
0.2577218898791356,3.4895622730255127
0.25747771944817477,3.4923083782196045
0.2440483457453302,3.495060443878174
0.2516176291051153,3.497838020324707
0.24526919790013424,3.50058650970459
0.24624587962397748,3.503335475921631
0.25967525332682206,3.506084680557251
0.2586985716029788,3.5088603496551514
0.24526919790013424,3.511606454849243
0.2516176291051153,3.5143508911132812
0.24502502746917343,3.5171053409576416
0.2440483457453302,3.519883155822754
0.25210596996703694,3.5226218700408936
0.2530826516908802,3.525367021560669
0.24160664143572208,3.5282320976257324
0.24624587962397748,3.5309877395629883
0.2423391527286045,3.533735752105713
0.2423391527286045,3.536482095718384
0.2560126968624099,3.5392563343048096
0.25479184470760585,3.541996955871582
0.24502502746917343,3.5447499752044678
0.24819924307166397,3.5475330352783203
0.24551336833109505,3.5502824783325195
0.24331583445244775,3.5530290603637695
0.2538151629837626,3.5557782649993896
0.25283848125991937,3.5585546493530273
0.2420949822976437,3.561304807662964
0.24624587962397748,3.56404709815979
0.2440483457453302,3.566793203353882
0.24038578928091803,3.569570541381836
0.24966426565742883,3.572317123413086
0.24819924307166397,3.5750651359558105
0.24038578928091803,3.577923059463501
0.2418508118666829,3.580678939819336
0.23599072152362344,3.583430051803589
0.23232816505921128,3.586493730545044
0.24307166402148694,3.589299201965332
0.24380417531436938,3.5920534133911133
0.23208399462825047,3.5948386192321777
0.235258210230741,3.597623586654663
0.2281772677328775,3.600370168685913
0.22500305213038696,3.603118419647217
0.23379318764497614,3.6058688163757324
0.2330606763520937,3.608670473098755
0.22231717738981804,3.611417770385742
0.22646807471615182,3.614168167114258
0.2215846660969356,3.6169161796569824
0.2237821999755829,3.6197004318237305
0.23135148333536804,3.6224522590637207
0.23208399462825047,3.625204086303711
0.2235380295446221,3.627988338470459
0.22768892687095588,3.6307528018951416
0.22500305213038696,3.6335089206695557
0.23354901721401533,3.636260509490967
0.24819924307166397,3.639055013656616
0.2491759247955072,3.6418066024780273
0.24307166402148694,3.644559621810913
0.24771090220974235,3.647343158721924
0.24526919790013424,3.6500961780548096
0.24014161884995722,3.6528525352478027
0.25015260651935045,3.6555845737457275
0.24746673177878153,3.6583709716796875
0.24111830057380046,3.6611201763153076
0.24136247100476127,3.6638741493225098
0.23867659626419235,3.666621685028076
0.23354901721401533,3.669398546218872
0.2418508118666829,3.6721439361572266
0.23794408497130992,3.674891233444214
0.23135148333536804,3.677668571472168
0.23354901721401533,3.680415153503418
0.23183982419728966,3.6831603050231934
0.22964229031864236,3.685903549194336
0.24038578928091803,3.688682794570923
0.23940910755707479,3.6914308071136475
0.23476986936881938,3.6941781044006348
0.23354901721401533,3.696920394897461
0.23452569893785857,3.6996889114379883
0.23354901721401533,3.7024309635162354
0.24380417531436938,3.7051780223846436
0.24282749359052613,3.707961082458496
0.23794408497130992,3.7107083797454834
0.23452569893785857,3.713449716567993
0.2374557441093883,3.7161951065063477
0.23452569893785857,3.718966245651245
0.2440483457453302,3.721721649169922
0.24771090220974235,3.7244715690612793
0.24111830057380046,3.7272684574127197
0.23599072152362344,3.7300221920013428
0.2374557441093883,3.7327663898468018
0.23696740324746668,3.73551607131958
0.2511292882431937,3.7382848262786865
0.2538151629837626,3.741028308868408
0.2562568672933707,3.743767738342285
0.2489317543645464,3.7465155124664307
0.2516176291051153,3.7492926120758057
0.2469783909168599,3.752041816711426
0.2530826516908802,3.7547860145568848
0.2540593334147234,3.7575559616088867
0.2518617995360761,3.7602977752685547
0.24380417531436938,3.7630486488342285
0.2491759247955072,3.7657933235168457
0.24526919790013424,3.768639087677002
0.2508851178122329,3.7713773250579834
0.2538151629837626,3.774125814437866
0.2511292882431937,3.776867628097534
0.24160664143572208,3.7796568870544434
0.24624587962397748,3.7824065685272217
0.24111830057380046,3.7851595878601074
0.24795507264070316,3.7880382537841797
0.25479184470760585,3.790794610977173
0.2511292882431937,3.7935400009155273
0.24136247100476127,3.796288251876831
0.2489317543645464,3.799075126647949
0.24478085703821262,3.8018243312835693
0.25283848125991937,3.804567575454712
0.25698937858625315,3.8073506355285645
0.2555243560004883,3.8100967407226562
0.24307166402148694,3.812838554382324
0.2511292882431937,3.8155734539031982
0.24502502746917343,3.8183581829071045
0.2511292882431937,3.8210928440093994
0.25479184470760585,3.823835849761963
0.25235014039799775,3.826575517654419
0.2398974484189964,3.8293564319610596
0.2491759247955072,3.832113742828369
0.24331583445244775,3.8348617553710938
0.25039677695031126,3.8376383781433105
0.2557685264314491,3.8403875827789307
0.2560126968624099,3.843130350112915
0.2420949822976437,3.845879554748535
0.2511292882431937,3.8486735820770264
0.24526919790013424,3.8514301776885986
0.2489317543645464,3.8541808128356934
0.2577218898791356,3.8569319248199463
0.25698937858625315,3.8597042560577393
0.24502502746917343,3.8624517917633057
0.25479184470760585,3.8651938438415527
0.24722256134782072,3.867969512939453
0.2491759247955072,3.870725154876709
0.2560126968624099,3.8734679222106934
0.2555243560004883,3.8762121200561523
0.24136247100476127,3.878994941711426
0.2464900500549383,3.8817429542541504
0.23867659626419235,3.884486675262451
0.24111830057380046,3.887263059616089
0.25283848125991937,3.8900105953216553
0.25283848125991937,3.8927767276763916
0.23916493712611397,3.8955371379852295
0.2518617995360761,3.8983235359191895
0.24526919790013424,3.9010729789733887
0.25015260651935045,3.903810977935791
0.2645586619460383,3.9065568447113037
0.2633378097912342,3.909331798553467
0.2530826516908802,3.912075996398926
0.2630936393602734,3.914822578430176
0.2560126968624099,3.9175987243652344
0.2552801855695275,3.9203410148620605
0.2652911732389207,3.923084020614624
0.2652911732389207,3.9258363246917725
0.2530826516908802,3.928616523742676
0.26358198022219503,3.931370496749878
0.2560126968624099,3.934116840362549
0.2579660603100964,3.9368631839752197
0.26870955927237206,3.9396514892578125
0.2694420705652545,3.9423952102661133
0.25747771944817477,3.945173501968384
0.26382615065315584,3.9479544162750244
0.2560126968624099,3.950704336166382
0.2579660603100964,3.953447103500366
0.27115126358198016,3.9561898708343506
0.27115126358198016,3.9589669704437256
0.2582102307410572,3.96171236038208
0.26382615065315584,3.964454174041748
0.2586985716029788,3.967249631881714
0.25674520815529234,3.9699971675872803
0.26870955927237206,3.9727375507354736
0.267488707117568,3.975487470626831
0.2562568672933707,3.9782660007476807
0.25894274203393963,3.981009006500244
0.25283848125991937,3.9837498664855957
0.25039677695031126,3.986487865447998
0.25894274203393963,3.989262104034424
0.2577218898791356,3.9920125007629395
0.24819924307166397,3.9947574138641357
0.2508851178122329,3.9976165294647217
0.24795507264070316,4.0003745555877686
0.24575753876205586,4.003121376037598
0.2577218898791356,4.00587010383606
0.25479184470760585,4.00864839553833
0.24575753876205586,4.011401653289795
0.24746673177878153,4.014149904251099
0.24307166402148694,4.016900539398193
0.24038578928091803,4.019676685333252
0.25210596996703694,4.022413015365601
0.2506409473812721,4.025146484375
0.24258332315956532,4.027935743331909
0.2445366866072518,4.030683994293213
0.2420949822976437,4.033447265625
0.24258332315956532,4.036193132400513
0.2530826516908802,4.0389673709869385
0.2513734586741545,4.041704893112183
0.24380417531436938,4.0444512367248535
0.24282749359052613,4.047222375869751
0.2418508118666829,4.04997444152832
0.24014161884995722,4.052718639373779
0.25235014039799775,4.055458307266235
0.2516176291051153,4.0582311153411865
0.24600170919301667,4.060974836349487
0.2445366866072518,4.063723802566528
0.24575753876205586,4.066469430923462
0.24307166402148694,4.069239616394043
0.2530826516908802,4.071974754333496
0.25283848125991937,4.074710845947266
0.24722256134782072,4.077489614486694
0.24258332315956532,4.08022928237915
0.2440483457453302,4.082978248596191
0.2420949822976437,4.0860230922698975
0.2538151629837626,4.088839054107666
0.2530826516908802,4.091581344604492
0.24600170919301667,4.094336032867432
0.244292516176291,4.097086191177368
0.2469783909168599,4.099863767623901
0.2440483457453302,4.102618455886841
0.25430350384568423,4.105356454849243
0.2540593334147234,4.108129978179932
0.2489317543645464,4.110880374908447
0.24526919790013424,4.113630771636963
0.24502502746917343,4.116380453109741
0.2423391527286045,4.119166612625122
0.2513734586741545,4.12191104888916
0.2518617995360761,4.124653100967407
0.2469783909168599,4.127431154251099
0.24136247100476127,4.1301820278167725
0.24502502746917343,4.132943868637085
0.24331583445244775,4.1356964111328125
0.253326822121841,4.138476848602295
0.2555243560004883,4.1412200927734375
0.25235014039799775,4.143954038619995
0.24575753876205586,4.146703720092773
0.24966426565742883,4.149486780166626
0.2467342204858991,4.152234315872192
0.2516176291051153,4.154972314834595
0.25235014039799775,4.15774393081665
0.25015260651935045,4.16047739982605
0.24136247100476127,4.163224935531616
0.24819924307166397,4.1659746170043945
0.24380417531436938,4.168753623962402
0.24966426565742883,4.171506404876709
0.2530826516908802,4.1742470264434814
0.24990843608838964,4.176999568939209
0.23940910755707479,4.179775714874268
0.24624587962397748,4.18251895904541
0.24038578928091803,4.185265064239502
0.24746673177878153,4.188044309616089
0.25235014039799775,4.190790414810181
0.2491759247955072,4.19353461265564
0.2372115736784275,4.196285963058472
0.24478085703821262,4.199063062667847
0.23940910755707479,4.201820373535156
0.2440483457453302,4.2045652866363525
0.25015260651935045,4.207441091537476
0.2491759247955072,4.210190534591675
0.23672323281650587,4.212932348251343
0.24478085703821262,4.2156805992126465
0.23916493712611397,4.218461275100708
0.2423391527286045,4.221203088760376
0.25283848125991937,4.223944425582886
0.2491759247955072,4.226688861846924
0.23623489195458425,4.22947096824646
0.24600170919301667,4.232235670089722
0.24038578928091803,4.234993934631348
0.24258332315956532,4.237792730331421
0.24990843608838964,4.24054479598999
0.2491759247955072,4.243290424346924
0.23550238066170182,4.246031761169434
0.24307166402148694,4.248811960220337
0.2374557441093883,4.251553297042847
0.2398974484189964,4.254299640655518
0.25015260651935045,4.257037401199341
0.2489317543645464,4.259823322296143
0.23452569893785857,4.262562036514282
0.24282749359052613,4.2653069496154785
0.235258210230741,4.268080472946167
0.23354901721401533,4.270824670791626
0.24380417531436938,4.273571014404297
0.2445366866072518,4.276315212249756
0.2303748016115248,4.279097557067871
0.24014161884995722,4.281850099563599
0.2330606763520937,4.284591436386108
0.23403735807593695,4.287371873855591
0.24624587962397748,4.290112733840942
0.24624587962397748,4.292860746383667
0.2325723354901721,4.295632600784302
0.23940910755707479,4.29841685295105
0.23354901721401533,4.301167249679565
0.23623489195458425,4.303907871246338
0.2489317543645464,4.306652069091797
0.24990843608838964,4.309433937072754
0.2372115736784275,4.31218409538269
0.24600170919301667,4.314932823181152
0.23867659626419235,4.317707300186157
0.23916493712611397,4.320451021194458
0.2516176291051153,4.323192358016968
0.2508851178122329,4.325930833816528
0.2374557441093883,4.328746795654297
0.24380417531436938,4.3314902782440186
0.23794408497130992,4.3342485427856445
0.2398974484189964,4.336999416351318
0.2508851178122329,4.339766025543213
0.25210596996703694,4.342505931854248
0.24038578928091803,4.345250368118286
0.2464900500549383,4.348027467727661
0.24136247100476127,4.350771903991699
0.24136247100476127,4.353512525558472
0.2530826516908802,4.356240749359131
0.25235014039799775,4.35901141166687
0.24111830057380046,4.3617565631866455
0.24624587962397748,4.364498138427734
0.2423391527286045,4.367265224456787
0.24038578928091803,4.370008945465088
0.25015260651935045,4.37274694442749
0.2489317543645464,4.375499248504639
0.2398974484189964,4.378282785415649
0.24307166402148694,4.381028175354004
0.24136247100476127,4.383771896362305
0.24111830057380046,4.386521100997925
0.25747771944817477,4.389299154281616
0.25747771944817477,4.392045259475708
0.2538151629837626,4.394790172576904
0.2557685264314491,4.3975749015808105
0.2555243560004883,4.400320053100586
0.2491759247955072,4.403066873550415
0.2582102307410572,4.405813217163086
0.25698937858625315,4.408596038818359
0.2489317543645464,4.411345958709717
0.2489317543645464,4.41409707069397
0.24819924307166397,4.416845083236694
0.244292516176291,4.4197096824646
0.2538151629837626,4.4224631786346436
0.2518617995360761,4.425200462341309
0.244292516176291,4.427978754043579
0.24331583445244775,4.430717468261719
0.24258332315956532,4.433460712432861
0.24014161884995722,4.436209678649902
0.24990843608838964,4.438998460769653
0.2489317543645464,4.4417455196380615
0.24282749359052613,4.444488763809204
0.24062995971187884,4.447282075881958
0.24038578928091803,4.450027227401733
0.23623489195458425,4.452778100967407
0.244292516176291,4.455528974533081
0.2440483457453302,4.458307981491089
0.23843242583323154,4.461050987243652
0.235258210230741,4.463797092437744
0.23916493712611397,4.466540336608887
0.23476986936881938,4.469316720962524
0.244292516176291,4.472070932388306
0.244292516176291,4.474810600280762
0.24038578928091803,4.477587699890137
0.23550238066170182,4.480333566665649
0.23818825540227073,4.483080625534058
0.23428152850689776,4.485828399658203
0.2445366866072518,4.488696575164795
0.24624587962397748,4.491453647613525
0.24478085703821262,4.4942004680633545
0.23867659626419235,4.496943950653076
0.24258332315956532,4.499723434448242
0.23818825540227073,4.5024731159210205
0.24526919790013424,4.505216360092163
0.24771090220974235,4.508000373840332
0.244292516176291,4.510748386383057
0.2374557441093883,4.513494968414307
0.24331583445244775,4.5162389278411865
0.23940910755707479,4.519016981124878
0.2464900500549383,4.521761178970337
0.2489317543645464,4.5245044231414795
0.24551336833109505,4.52728271484375
0.235258210230741,4.530028581619263
0.2423391527286045,4.532774209976196
0.23867659626419235,4.535537958145142
0.24526919790013424,4.538329839706421
0.24942009522646802,4.541078805923462
0.24990843608838964,4.543825149536133
0.23916493712611397,4.5465710163116455
0.2469783909168599,4.549351692199707
0.2423391527286045,4.552097320556641
0.2469783909168599,4.554839849472046
0.2508851178122329,4.557618856430054
0.25015260651935045,4.56035590171814
0.2374557441093883,4.563108682632446
0.2464900500549383,4.565856695175171
0.24111830057380046,4.568663120269775
0.24502502746917343,4.571416139602661
0.24966426565742883,4.5741682052612305
0.24942009522646802,4.576914072036743
0.23647906238554506,4.5796895027160645
0.24258332315956532,4.5824363231658936
0.23818825540227073,4.585487365722656
0.24771090220974235,4.5882954597473145
0.2511292882431937,4.591037034988403
0.25015260651935045,4.593777894973755
0.23843242583323154,4.5965235233306885
0.24746673177878153,4.599310636520386
0.2423391527286045,4.6020567417144775
0.24551336833109505,4.604803800582886
0.2511292882431937,4.607577323913574
0.2513734586741545,4.610320091247559
0.23916493712611397,4.613067626953125
0.24624587962397748,4.6158154010772705
0.24038578928091803,4.618598699569702
0.24258332315956532,4.621347427368164
0.24819924307166397,4.624101161956787
0.24795507264070316,4.626847743988037
0.23452569893785857,4.629719972610474
0.2440483457453302,4.632474660873413
0.23867659626419235,4.635254383087158
0.24331583445244775,4.638068914413452
0.24966426565742883,4.640823125839233
0.24819924307166397,4.643565893173218
0.23476986936881938,4.646341323852539
0.24331583445244775,4.649132013320923
0.23843242583323154,4.651876926422119
0.24014161884995722,4.654627323150635
0.2469783909168599,4.6574156284332275
0.24722256134782072,4.660163640975952
0.23452569893785857,4.662909984588623
0.24502502746917343,4.6656575202941895
0.23867659626419235,4.6684393882751465
0.24307166402148694,4.671182155609131
0.24942009522646802,4.673931360244751
0.24990843608838964,4.676684379577637
0.23623489195458425,4.6794655323028564
0.24624587962397748,4.68221378326416
0.23916493712611397,4.684955358505249
0.24014161884995722,4.68775749206543
0.24966426565742883,4.690505504608154
0.25015260651935045,4.693244218826294
0.23599072152362344,4.695986986160278
0.24258332315956532,4.698767900466919
0.23623489195458425,4.701520919799805
0.23623489195458425,4.70426869392395
0.2469783909168599,4.707014799118042
0.24819924307166397,4.709796667098999
0.23354901721401533,4.713213920593262
0.24258332315956532,4.71598482131958
0.23794408497130992,4.71878719329834
0.2420949822976437,4.721543312072754
0.24600170919301667,4.724301099777222
0.24478085703821262,4.727048873901367
0.23330484678305452,4.729831218719482
0.2418508118666829,4.7325804233551025
0.2372115736784275,4.73532772064209
0.24038578928091803,4.738138914108276
0.2469783909168599,4.740899324417114
0.2469783909168599,4.74364972114563
0.23379318764497614,4.746390342712402
0.24331583445244775,4.749175310134888
0.2374557441093883,4.751925230026245
0.2423391527286045,4.754672527313232
0.2506409473812721,4.757447719573975
0.2535709925528018,4.760193347930908
0.2398974484189964,4.762930631637573
0.24819924307166397,4.7656731605529785
0.24136247100476127,4.768457412719727
0.2440483457453302,4.771209001541138
0.2508851178122329,4.773947715759277
0.2535709925528018,4.776691198348999
0.23940910755707479,4.779469728469849
0.24966426565742883,4.78221869468689
0.24307166402148694,4.784960985183716
0.24575753876205586,4.787738084793091
0.25454767427664504,4.790482759475708
0.2557685264314491,4.793221950531006
0.24136247100476127,4.795969009399414
0.24942009522646802,4.7987542152404785
0.2423391527286045,4.801499366760254
0.2420949822976437,4.804243803024292
0.2535709925528018,4.806978702545166
0.25503601513856666,4.809781074523926
0.23867659626419235,4.813004493713379
0.24844341350262478,4.815768480300903
0.2420949822976437,4.818562269210815
0.24526919790013424,4.821306228637695
0.2535709925528018,4.82405161857605
0.2508851178122329,4.826792001724243
0.23696740324746668,4.829576253890991
0.24746673177878153,4.832324266433716
0.24111830057380046,4.8350746631622314
0.24331583445244775,4.837984800338745
0.2516176291051153,4.840739488601685
0.2508851178122329,4.843477249145508
0.2376999145403491,4.84622049331665
0.2491759247955072,4.8490142822265625
0.2423391527286045,4.851762771606445
0.24282749359052613,4.854506969451904
0.2518617995360761,4.857280969619751
0.25210596996703694,4.860022306442261
0.2374557441093883,4.862769603729248
0.24722256134782072,4.865509986877441
0.24062995971187884,4.868294715881348
0.2423391527286045,4.871035099029541
0.25235014039799775,4.873769760131836
0.2538151629837626,4.876513957977295
0.23940910755707479,4.879296064376831
0.2491759247955072,4.882045745849609
0.2420949822976437,4.884795427322388
0.24624587962397748,4.887577056884766
0.2577218898791356,4.890322923660278
0.2579660603100964,4.89306640625
0.24380417531436938,4.8958189487457275
0.24966426565742883,4.898606538772583
0.24282749359052613,4.901352405548096
0.24282749359052613,4.904093027114868
0.2518617995360761,4.906826496124268
0.2538151629837626,4.909602403640747
0.24014161884995722,4.9123475551605225
0.24844341350262478,4.915092706680298
0.2423391527286045,4.917870759963989
0.24258332315956532,4.9206178188323975
0.25430350384568423,4.923357725143433
0.25430350384568423,4.926103353500366
0.2418508118666829,4.928909778594971
0.24795507264070316,4.931664943695068
0.2423391527286045,4.934410095214844
0.2418508118666829,4.937199354171753
0.2508851178122329,4.939957857131958
0.2518617995360761,4.942697286605835
0.24087413014283965,4.945441007614136
0.24624587962397748,4.948223352432251
0.2398974484189964,4.950976848602295
0.2440483457453302,4.953724145889282
0.2565010377243315,4.956462621688843
0.2586985716029788,4.9592437744140625
0.2489317543645464,4.961991310119629
0.2518617995360761,4.964741230010986
0.24990843608838964,4.967527866363525
0.2469783909168599,4.970278263092041
0.2560126968624099,4.973019361495972
0.25479184470760585,4.9757654666900635
0.24526919790013424,4.978544235229492
0.24966426565742883,4.981295347213745
0.24624587962397748,4.9840476512908936
0.2440483457453302,4.986805200576782
0.25698937858625315,4.989584445953369
0.2579660603100964,4.992323875427246
0.2513734586741545,4.995063543319702
0.2538151629837626,4.997881650924683
0.2518617995360761,5.000635623931885
0.25039677695031126,5.003372430801392
0.2652911732389207,5.006123065948486
0.26358198022219503,5.008906602859497
0.2557685264314491,5.011654376983643
0.25698937858625315,5.014402389526367
0.25698937858625315,5.017179489135742
0.25039677695031126,5.019922256469727
0.2579660603100964,5.022663593292236
0.2540593334147234,5.025405406951904
0.24819924307166397,5.02818489074707
0.244292516176291,5.03092622756958
0.24380417531436938,5.033671140670776
0.23794408497130992,5.0364158153533936
0.24526919790013424,5.039231061935425
0.24356000488340857,5.04198956489563
0.23818825540227073,5.044741868972778
0.23599072152362344,5.047639846801758
0.23843242583323154,5.050388336181641
0.24014161884995722,5.05313777923584
0.26138444634354774,5.05587911605835
0.26651202539372476,5.058661222457886
0.26577951410084233,5.061402797698975
0.2633378097912342,5.0641467571258545
0.2645586619460383,5.066889524459839
0.2577218898791356,5.069664716720581
0.2652911732389207,5.0724098682403564
0.26407032108411665,5.075152397155762
0.26211695763643017,5.077929496765137
0.25747771944817477,5.080677270889282
0.2579660603100964,5.083416938781738
0.25235014039799775,5.086458444595337
0.26211695763643017,5.0892462730407715
0.25894274203393963,5.091989040374756
0.25454767427664504,5.094728946685791
0.2508851178122329,5.097501754760742
0.2491759247955072,5.100250959396362
0.24624587962397748,5.102999448776245
0.2506409473812721,5.1057398319244385
0.24966426565742883,5.10853385925293
0.24819924307166397,5.111342430114746
0.24746673177878153,5.114637136459351
0.2420949822976437,5.11783504486084
0.2372115736784275,5.120700836181641
0.2440483457453302,5.123704671859741
0.24722256134782072,5.126894950866699
0.23354901721401533,5.1300060749053955
0.2445366866072518,5.132826089859009
0.24014161884995722,5.135786771774292
0.24575753876205586,5.138909816741943
0.24746673177878153,5.142072439193726
0.24380417531436938,5.1451170444488525
0.24307166402148694,5.148411989212036
0.23623489195458425,5.151530742645264
0.2328165059211329,5.1546478271484375
0.2445366866072518,5.15787672996521
0.24990843608838964,5.1610267162323
0.24136247100476127,5.164125919342041
0.24502502746917343,5.167413711547852
0.24331583445244775,5.170311689376831
0.25283848125991937,5.1735453605651855
0.25503601513856666,5.176693439483643
0.24038578928091803,5.1796605587005615
0.24795507264070316,5.1827638149261475
0.2418508118666829,5.185935735702515
0.24844341350262478,5.189059257507324
0.25479184470760585,5.192108869552612
0.2464900500549383,5.194950819015503
0.2464900500549383,5.198173999786377
0.2467342204858991,5.20124626159668
0.24795507264070316,5.204214811325073
0.2579660603100964,5.207024335861206
0.2582102307410572,5.210124254226685
0.24624587962397748,5.213284492492676
0.2464900500549383,5.216270446777344
0.24062995971187884,5.219471454620361
0.23476986936881938,5.222610950469971
0.235258210230741,5.225817918777466
0.22890977902575993,5.229053497314453
0.23623489195458425,5.232157468795776
0.23135148333536804,5.235325813293457
0.23208399462825047,5.238482475280762
0.23940910755707479,5.241633653640747
0.23599072152362344,5.244515419006348
0.23159565376632885,5.247810363769531
0.23208399462825047,5.250992059707642
0.23232816505921128,5.253881931304932
0.2491759247955072,5.256996393203735
0.2506409473812721,5.260066509246826
0.23550238066170182,5.2633373737335205
0.24526919790013424,5.2664618492126465
0.24526919790013424,5.2693963050842285
0.25747771944817477,5.272317171096802
0.26187278720546936,5.275529146194458
0.2608961054816261,5.27868390083313
0.2626052984983518,5.281486988067627
0.2579660603100964,5.284286737442017
0.25698937858625315,5.2874977588653564
0.27041875228909773,5.290646076202393
0.2655353436698815,5.293685436248779
0.2508851178122329,5.296839475631714
0.26431449151507747,5.300015211105347
0.2586985716029788,5.303197145462036
0.27066292272005854,5.306312084197998
0.27066292272005854,5.309533596038818
0.2586985716029788,5.312631130218506
0.25894274203393963,5.315786600112915
0.24966426565742883,5.318902492523193
0.24819924307166397,5.322093486785889
0.25235014039799775,5.325121164321899
0.25015260651935045,5.328198671340942
0.24722256134782072,5.33127236366272
0.24844341350262478,5.334193229675293
0.24722256134782072,5.33742094039917
0.25967525332682206,5.340660572052002
0.26162861677450855,5.343505620956421
0.24746673177878153,5.346290111541748
0.25430350384568423,5.349591255187988
0.2491759247955072,5.3527374267578125
0.25894274203393963,5.355545997619629
0.2655353436698815,5.3584277629852295
0.2611402759125869,5.361451864242554
0.25943108289586125,5.364621877670288
0.26211695763643017,5.3676347732543945
0.2606519350506653,5.370770215988159
0.27115126358198016,5.373950004577637
0.26870955927237206,5.377106189727783
0.2565010377243315,5.380372762680054
0.26382615065315584,5.38349986076355
0.2577218898791356,5.386663436889648
0.26358198022219503,5.3898491859436035
0.26407032108411665,5.393019199371338
0.2518617995360761,5.396015882492065
0.25698937858625315,5.399233341217041
0.2508851178122329,5.402375936508179
0.2540593334147234,5.40523886680603
0.25967525332682206,5.408413887023926
0.25747771944817477,5.411261796951294
0.2516176291051153,5.414041996002197
0.2538151629837626,5.416793346405029
0.25210596996703694,5.419595956802368
0.26138444634354774,5.422343730926514
0.26187278720546936,5.425088405609131
0.2582102307410572,5.427880525588989
0.2508851178122329,5.4306252002716064
0.25430350384568423,5.433362722396851
0.25015260651935045,5.436101198196411
0.25479184470760585,5.438883543014526
0.2577218898791356,5.441639423370361
0.2555243560004883,5.4443888664245605
0.24526919790013424,5.447180509567261
0.24966426565742883,5.4499428272247314
0.24502502746917343,5.452696323394775
0.2538151629837626,5.455443620681763
0.2579660603100964,5.45822811126709
0.25674520815529234,5.460975885391235
0.2464900500549383,5.463730096817017
0.24942009522646802,5.466474294662476
0.24771090220974235,5.469360113143921
0.2560126968624099,5.472105264663696
0.2599194237577829,5.474837064743042
0.2608961054816261,5.477612733840942
0.2508851178122329,5.480353832244873
0.2586985716029788,5.483097791671753
0.25210596996703694,5.4858338832855225
0.2560126968624099,5.488615989685059
0.25967525332682206,5.491365909576416
0.2562568672933707,5.494103193283081
0.2440483457453302,5.496849775314331
0.2491759247955072,5.499638795852661
0.24600170919301667,5.502384185791016
0.2518617995360761,5.505127191543579
0.24966426565742883,5.507912874221802
0.24942009522646802,5.510669469833374
0.2372115736784275,5.513419151306152
0.24258332315956532,5.516165018081665
0.23550238066170182,5.518952131271362
0.23208399462825047,5.521703481674194
0.24038578928091803,5.52445650100708
0.23867659626419235,5.527313709259033
0.22500305213038696,5.5300610065460205
0.23208399462825047,5.532815217971802
0.22646807471615182,5.535561561584473
0.22866560859479912,5.538349628448486
0.235258210230741,5.541095972061157
0.2376999145403491,5.543848991394043
0.22475888169942615,5.5466015338897705
0.23452569893785857,5.549390554428101
0.2306189720424856,5.552132606506348
0.23672323281650587,5.554880857467651
0.2469783909168599,5.557662725448608
0.2469783909168599,5.56041693687439
0.23428152850689776,5.5631654262542725
0.24136247100476127,5.565911769866943
0.23476986936881938,5.568691968917847
0.23330484678305452,5.57143235206604
0.24307166402148694,5.573623180389404
0.24380417531436938,5.574995756149292
0.2464900500549383,5.5763702392578125
0.23940910755707479,5.577762842178345
0.23354901721401533,5.579136848449707
0.23843242583323154,5.580507040023804
0.23696740324746668,5.581880807876587
0.23403735807593695,5.583256244659424
0.2306189720424856,5.584817171096802
0.22866560859479912,5.586190938949585
0.2281772677328775,5.587586164474487
0.23574655109266263,5.588960409164429
0.23428152850689776,5.590332984924316
0.23647906238554506,5.591706037521362
0.2418508118666829,5.593082427978516
0.23696740324746668,5.59445595741272
0.22939811988768155,5.595831394195557
0.2372115736784275,5.597222566604614
0.23940910755707479,5.598595857620239
0.23843242583323154,5.5999672412872314
0.23403735807593695,5.6013429164886475
0.23599072152362344,5.602717399597168
0.24307166402148694,5.604092359542847
0.25454767427664504,5.605463743209839
0.25479184470760585,5.60683798789978
0.25479184470760585,5.608227729797363
0.25747771944817477,5.609601736068726
0.25039677695031126,5.610969066619873
0.24380417531436938,5.612342834472656
0.2491759247955072,5.613715648651123
0.2555243560004883,5.615084886550903
0.2540593334147234,5.616456508636475
0.24990843608838964,5.617848634719849
0.24795507264070316,5.619230031967163
0.24819924307166397,5.620603322982788
0.2586985716029788,5.621970891952515
0.25943108289586125,5.623338222503662
0.2582102307410572,5.624706983566284
0.2626052984983518,5.626075744628906
0.2560126968624099,5.627461671829224
0.25283848125991937,5.628833055496216
0.2518617995360761,5.630202293395996
0.2518617995360761,5.631571054458618
0.2530826516908802,5.632937908172607
0.24600170919301667,5.634310007095337
0.24062995971187884,5.635683298110962
0.23574655109266263,5.637053489685059
0.24014161884995722,5.638443231582642
0.24038578928091803,5.6398162841796875
0.23916493712611397,5.641188859939575
0.24136247100476127,5.642577409744263
0.23452569893785857,5.64394998550415
0.2284214381638383,5.645323276519775
0.22964229031864236,5.6466968059539795
0.23818825540227073,5.648110866546631
0.23403735807593695,5.649482250213623
0.23086314247344641,5.65085244178772
0.22866560859479912,5.652244806289673
0.2284214381638383,5.653624534606934
0.23476986936881938,5.654999494552612
0.24038578928091803,5.656374216079712
0.23867659626419235,5.6577653884887695
0.24331583445244775,5.659138202667236
0.24014161884995722,5.660511016845703
0.23476986936881938,5.661880254745483
0.23354901721401533,5.663251638412476
0.24111830057380046,5.664627552032471
0.2398974484189964,5.666001319885254
0.2376999145403491,5.667394638061523
0.23672323281650587,5.66876745223999
0.24038578928091803,5.67014217376709
0.24526919790013424,5.6715171337127686
0.2516176291051153,5.6728880405426025
0.24942009522646802,5.674264669418335
0.25503601513856666,5.675632953643799
0.25454767427664504,5.677003383636475
0.24795507264070316,5.678452014923096
0.24502502746917343,5.679823637008667
0.2518617995360761,5.6811981201171875
0.2486875839335856,5.682570457458496
0.2464900500549383,5.683942079544067
0.2562568672933707,5.6853179931640625
0.26870955927237206,5.686690807342529
0.28042973995849096,5.688080549240112
0.2909290684898058,5.689454078674316
0.2887315346111585,5.690826892852783
0.29874252228055176,5.692202806472778
0.30362593089976797,5.693574666976929
0.2992308631424734,5.694945573806763
0.294591624954218,5.696318864822388
0.30289341960688554,5.697707414627075
0.30264924917592473,5.699078559875488
0.30069588572823824,5.700452566146851
0.2967891588328653,5.701828718185425
0.2948357953851788,5.703203439712524
0.2970333292638261,5.704573154449463
0.3043584421926504,5.7059454917907715
0.30094005615919905,5.707336187362671
0.3038701013307288,5.708712100982666
0.3016725674520815,5.710086345672607
0.29385911366133555,5.711459159851074
0.2879990233182761,5.712835788726807
0.2950799658161396,5.71420955657959
0.29410328409229636,5.715581655502319
0.2928824319374923,5.716951370239258
0.290684898058845,5.718339681625366
0.29410328409229636,5.719712972640991
0.2999633744353558,5.721086263656616
0.31192772555243553,5.7224602699279785
0.31046270296667067,5.723833799362183
0.3109510438285923,5.725207090377808
0.31241606641435715,5.726585388183594
0.304846783054572,5.727972030639648
0.2999633744353558,5.729345321655273
0.3094860212428274,5.730717658996582
0.3136369185691612,5.732088804244995
0.3109510438285923,5.733461141586304
0.30753265779514094,5.734834432601929
0.3068001465022585,5.7362072467803955
0.30289341960688554,5.737595319747925
0.31021853253570986,5.738966941833496
0.3070443169332193,5.740342617034912
0.308753509949945,5.741716146469116
0.3116835551214747,5.743095636367798
0.3043584421926504,5.744471311569214
0.2953241362471004,5.745842218399048
0.3016725674520815,5.7472357749938965
0.30289341960688554,5.7486066818237305
0.2977658405567085,5.74997878074646
0.2950799658161396,5.751348495483398
0.29605664753998284,5.752721071243286
0.2970333292638261,5.754092216491699
0.3043584421926504,5.755466461181641
0.30289341960688554,5.756835222244263
0.3016725674520815,5.758225440979004
0.3038701013307288,5.759598016738892
0.29654498840190446,5.760972499847412
0.2928824319374923,5.7623450756073
0.2921499206446099,5.763715744018555
0.29141740935172744,5.765089750289917
0.28751068245635447,5.766466856002808
0.2836039555609815,5.767868518829346
0.28213893297521664,5.769238471984863
0.2809180808204126,5.770613193511963
0.2901965571969234,5.771984815597534
0.29141740935172744,5.7733588218688965
0.28897570504211934,5.774730443954468
0.2921499206446099,5.776103734970093
0.2853131485777072,5.7774882316589355
0.27774386521792205,5.778860330581665
0.2792088878036869,5.780234336853027
0.28702234159443285,5.781604528427124
0.2840922964229031,5.782974720001221
0.28018556952753015,5.784347295761108
0.2784763765108045,5.785720348358154
0.2792088878036869,5.787093162536621
0.2862898303015504,5.788480043411255
0.2899523867659626,5.789852619171143
0.2879990233182761,5.791225910186768
0.2931266023684531,5.7925989627838135
0.28897570504211934,5.793973207473755
0.281650592113295,5.795344829559326
0.2809180808204126,5.79671835899353
0.28751068245635447,5.798108816146851
0.28458063728482474,5.799479246139526
0.2811622512513734,5.800854206085205
0.28213893297521664,5.802222490310669
0.2833597851300207,5.8035948276519775
0.2921499206446099,5.8049681186676025
0.29849835184959095,5.806339740753174
0.2950799658161396,5.8077332973480225
0.29898669271151257,5.809105157852173
0.2980100109876693,5.810475587844849
0.2899523867659626,5.811849117279053
0.28751068245635447,5.813222646713257
0.29605664753998284,5.814593553543091
0.2972774996947869,5.815964937210083
0.2909290684898058,5.81735372543335
0.2901965571969234,5.818727254867554
0.2887315346111585,5.820096492767334
0.28897570504211934,5.821471452713013
0.29361494323037474,5.822842836380005
0.28921987547308015,5.824212312698364
0.2921499206446099,5.825584650039673
0.28726651202539366,5.826991081237793
0.28213893297521664,5.828381538391113
0.27749969478696124,5.829751253128052
0.281650592113295,5.83111834526062
0.27774386521792205,5.83249044418335
0.2745696496154315,5.8338623046875
0.2745696496154315,5.8352370262146
0.27530216090831394,5.836611032485962
0.2770113539250396,5.838001012802124
0.2811622512513734,5.839376926422119
0.27798803564888286,5.840749263763428
0.2814064216823342,5.842115163803101
0.2811622512513734,5.843494415283203
0.27334879746062746,5.8448708057403564
0.267488707117568,5.84624457359314
0.2745696496154315,5.847633600234985
0.27286045659870584,5.849006175994873
0.2694420705652545,5.850377798080444
0.2694420705652545,5.851748943328857
0.27359296789158827,5.853116512298584
0.276523013063118,5.854489088058472
0.281650592113295,5.855858325958252
0.2794530582346477,5.857248544692993
0.28042973995849096,5.858620643615723
0.28042973995849096,5.8599936962127686
0.2723721157367842,5.861362934112549
0.2655353436698815,5.86273717880249
0.2738371383225491,5.864102840423584
0.27505799047735313,5.865475416183472
0.271395434012941,5.866845607757568
0.267488707117568,5.868231534957886
0.2648028323769991,5.8696043491363525
0.2648028323769991,5.8709728717803955
0.272616286167745,5.872345209121704
0.2716396044439018,5.873717784881592
0.271395434012941,5.875090837478638
0.2723721157367842,5.876656532287598
0.2599194237577829,5.879431486129761
0.26651202539372476,5.882170915603638
0.25943108289586125,5.884916305541992
0.26138444634354774,5.887800931930542
0.2770113539250396,5.890548467636108
0.27505799047735313,5.8932883739471436
0.2648028323769991,5.8960349559783936
0.2679770479794896,5.898807048797607
0.2606519350506653,5.901548624038696
0.26187278720546936,5.904289245605469
0.26895372970333287,5.907041788101196
0.2694420705652545,5.90981912612915
0.2601635941887437,5.9125566482543945
0.2645586619460383,5.91530442237854
0.25943108289586125,5.918076992034912
0.2608961054816261,5.920821666717529
0.2809180808204126,5.923572778701782
0.2792088878036869,5.926318168640137
0.2694420705652545,5.929093360900879
0.27749969478696124,5.931833028793335
0.27579050177023556,5.934568643569946
0.2699304114271761,5.937339544296265
0.28042973995849096,5.940086364746094
0.27798803564888286,5.942828178405762
0.2696862409962153,5.94558310508728
0.27090709315101935,5.948366165161133
0.2679770479794896,5.9511096477508545
0.2630936393602734,5.9538538455963135
0.27066292272005854,5.956597328186035
0.26870955927237206,5.9593775272369385
0.26187278720546936,5.962119102478027
0.26138444634354774,5.9648613929748535
0.2560126968624099,5.967633962631226
0.2555243560004883,5.970378398895264
0.2672445366866072,5.973120927810669
0.2652911732389207,5.975863695144653
0.2626052984983518,5.978642463684082
0.2633378097912342,5.981392860412598
0.25967525332682206,5.984138011932373
0.25015260651935045,5.986876010894775
0.2530826516908802,5.989643096923828
0.2530826516908802,5.992382764816284
0.2506409473812721,5.995116710662842
0.24966426565742883,5.997906446456909
0.2518617995360761,6.000651836395264
0.2469783909168599,6.003411054611206
0.2586985716029788,6.006152629852295
0.2586985716029788,6.008948564529419
0.2535709925528018,6.01169228553772
0.2508851178122329,6.014430046081543
0.25210596996703694,6.017194509506226
0.24819924307166397,6.019948720932007
0.25503601513856666,6.0226898193359375
0.2557685264314491,6.025439500808716
0.2516176291051153,6.028207778930664
0.24526919790013424,6.030956983566284
0.24624587962397748,6.0337042808532715
0.2423391527286045,6.036442041397095
0.24795507264070316,6.039217472076416
0.2535709925528018,6.041954278945923
0.24990843608838964,6.044704437255859
0.2418508118666829,6.047494411468506
0.24795507264070316,6.05024790763855
0.24624587962397748,6.053001642227173
0.25503601513856666,6.055747032165527
0.2538151629837626,6.058519124984741
0.2557685264314491,6.0612592697143555
0.2469783909168599,6.064006328582764
0.2506409473812721,6.066746711730957
0.24526919790013424,6.069521427154541
0.25015260651935045,6.072263956069946
0.2538151629837626,6.0750110149383545
0.2486875839335856,6.077793836593628
0.23916493712611397,6.080545902252197
0.2557685264314491,6.083292722702026
0.2511292882431937,6.0863447189331055
0.2608961054816261,6.089141368865967
0.2645586619460383,6.091894626617432
0.2608961054816261,6.094635486602783
0.2516176291051153,6.097491979598999
0.2626052984983518,6.100239992141724
0.25674520815529234,6.1029839515686035
0.26162861677450855,6.105727195739746
0.26382615065315584,6.10850191116333
0.2582102307410572,6.111245393753052
0.24722256134782072,6.113992691040039
0.25210596996703694,6.1167285442352295
0.2445366866072518,6.119508504867554
0.2469783909168599,6.122258424758911
0.2508851178122329,6.124997854232788
0.2508851178122329,6.127821683883667
0.24038578928091803,6.130572319030762
0.2423391527286045,6.133321285247803
0.23940910755707479,6.136072635650635
0.24526919790013424,6.138853073120117
0.24600170919301667,6.141594886779785
0.24624587962397748,6.144343852996826
0.23916493712611397,6.147102355957031
0.24502502746917343,6.149879693984985
0.23892076669515316,6.1526219844818115
0.23892076669515316,6.1553637981414795
0.24624587962397748,6.158144950866699
0.2489317543645464,6.160899639129639
0.23672323281650587,6.163646221160889
0.24722256134782072,6.166386365890503
0.24111830057380046,6.1691741943359375
0.24600170919301667,6.171926975250244
0.25479184470760585,6.174669504165649
0.25943108289586125,6.17744517326355
0.24526919790013424,6.180192708969116
0.2586985716029788,6.182935476303101
0.2538151629837626,6.185673713684082
0.25747771944817477,6.188449144363403
0.2691979001342937,6.191195964813232
0.27066292272005854,6.193940877914429
0.2560126968624099,6.196685791015625
0.2633378097912342,6.1994616985321045
0.25723354901721396,6.202204704284668
0.2540593334147234,6.204941511154175
0.2628494689293126,6.207717180252075
0.2611402759125869,6.210463523864746
0.2562568672933707,6.213205337524414
0.272616286167745,6.215949773788452
0.267488707117568,6.218733310699463
0.2691979001342937,6.22147798538208
0.27823220607984367,6.224222660064697
0.27823220607984367,6.226970195770264
0.2648028323769991,6.229748249053955
0.27359296789158827,6.232494115829468
0.2655353436698815,6.2352447509765625
0.2652911732389207,6.238023519515991
0.27579050177023556,6.240768909454346
0.272616286167745,6.2435197830200195
0.25918691246490044,6.24627423286438
0.2677328775485288,6.2490928173065186
0.26162861677450855,6.251838445663452
0.2582102307410572,6.254583835601807
0.26895372970333287,6.257358074188232
0.2655353436698815,6.260107755661011
0.2513734586741545,6.262845039367676
0.25967525332682206,6.265583515167236
0.2535709925528018,6.268359899520874
0.2562568672933707,6.271098852157593
0.27310462702966665,6.273845434188843
0.27530216090831394,6.2765936851501465
0.26675619582468557,6.2793731689453125
0.272616286167745,6.282115936279297
0.26651202539372476,6.284862041473389
0.26187278720546936,6.287636756896973
0.27749969478696124,6.290380477905273
0.27554633133927475,6.293124198913574
0.2694420705652545,6.295868635177612
0.27798803564888286,6.298651218414307
0.2762788426321572,6.30139946937561
0.27066292272005854,6.304142236709595
0.27994139909656934,6.306887865066528
0.27774386521792205,6.309754848480225
0.2670003662556464,6.312498092651367
0.26870955927237206,6.315243721008301
0.2648028323769991,6.318023443222046
0.26651202539372476,6.320763826370239
0.2809180808204126,6.323511123657227
0.2792088878036869,6.326263904571533
0.272616286167745,6.329046964645386
0.2716396044439018,6.331790447235107
0.2694420705652545,6.334533929824829
0.2652911732389207,6.337326288223267
0.27554633133927475,6.340085029602051
0.27310462702966665,6.342832803726196
0.2652911732389207,6.345583200454712
0.2679770479794896,6.348380088806152
0.2696862409962153,6.351127862930298
0.2645586619460383,6.35387659072876
0.2745696496154315,6.35662841796875
0.2716396044439018,6.359400749206543
0.2626052984983518,6.3621485233306885
0.2626052984983518,6.3648905754089355
0.2672445366866072,6.367694854736328
0.26358198022219503,6.370445251464844
0.27115126358198016,6.37319016456604
0.2694420705652545,6.375940799713135
0.26211695763643017,6.378721237182617
0.2601635941887437,6.381466627120972
0.26162861677450855,6.384218692779541
0.2562568672933707,6.386959075927734
0.2655353436698815,6.38974142074585
0.2648028323769991,6.392475605010986
0.25918691246490044,6.39521598815918
0.25479184470760585,6.397990942001343
0.25430350384568423,6.400736093521118
0.2486875839335856,6.40347957611084
0.2577218898791356,6.406228542327881
0.2586985716029788,6.409000396728516
0.253326822121841,6.411747694015503
0.24819924307166397,6.414496421813965
0.2516176291051153,6.417264938354492
0.24722256134782072,6.42000675201416
0.25430350384568423,6.422748565673828
0.25698937858625315,6.425493240356445
0.2516176291051153,6.428268194198608
0.2469783909168599,6.431019306182861
0.2538151629837626,6.433759927749634
0.2511292882431937,6.436496019363403
0.26407032108411665,6.439272880554199
0.2655353436698815,6.442026615142822
0.2691979001342937,6.444766044616699
0.25894274203393963,6.44756817817688
0.26846538884141125,6.450321435928345
0.2633378097912342,6.453060626983643
0.2694420705652545,6.455804109573364
0.272616286167745,6.458584547042847
0.2716396044439018,6.461316823959351
0.2601635941887437,6.464058876037598
0.2672445366866072,6.466800928115845
0.26211695763643017,6.469573497772217
0.2655353436698815,6.472317457199097
0.2694420705652545,6.475056409835815
0.26675619582468557,6.477856159210205
0.2552801855695275,6.480601787567139
0.2626052984983518,6.483346700668335
0.2557685264314491,6.486088752746582
0.25747771944817477,6.488961935043335
0.26138444634354774,6.4917144775390625
0.26187278720546936,6.494459629058838
0.2489317543645464,6.497244358062744
0.2562568672933707,6.4999940395355225
0.24990843608838964,6.502747535705566
0.2538151629837626,6.505490064620972
0.2606519350506653,6.508271932601929
0.2601635941887437,6.511017799377441
0.24624587962397748,6.513761520385742
0.2552801855695275,6.516504526138306
0.2491759247955072,6.519373893737793
0.2506409473812721,6.52211594581604
0.2579660603100964,6.524859666824341
0.25698937858625315,6.5276408195495605
0.244292516176291,6.530390739440918
0.2518617995360761,6.533131837844849
0.24478085703821262,6.5358781814575195
0.24795507264070316,6.538658142089844
0.2577218898791356,6.541403293609619
0.2601635941887437,6.544142484664917
0.24600170919301667,6.54690408706665
0.25479184470760585,6.54970121383667
0.24795507264070316,6.552458047866821
0.25015260651935045,6.55518913269043
0.25918691246490044,6.557964563369751
0.2606519350506653,6.560716152191162
0.2464900500549383,6.563463449478149
0.25430350384568423,6.566202878952026
0.2469783909168599,6.568988084793091
0.2511292882431937,6.571727991104126
0.26407032108411665,6.574469804763794
0.2655353436698815,6.5772483348846436
0.2513734586741545,6.579984426498413
0.26187278720546936,6.582719564437866
0.2540593334147234,6.58577561378479
0.2586985716029788,6.588570833206177
0.2716396044439018,6.59131932258606
0.272616286167745,6.594062805175781
0.2577218898791356,6.5968146324157715
0.26651202539372476,6.599594593048096
0.25918691246490044,6.6023337841033936
0.2604077646197045,6.60507607460022
0.2721279453058234,6.607876539230347
0.27066292272005854,6.6106226444244385
0.25674520815529234,6.613370895385742
0.26602368453180314,6.6161134243011475
0.2582102307410572,6.6188859939575195
0.25894274203393963,6.621630907058716
0.2694420705652545,6.624375820159912
0.2672445366866072,6.627119064331055
0.25235014039799775,6.6298909187316895
0.25943108289586125,6.632627248764038
0.2518617995360761,6.635374307632446
0.24942009522646802,6.638164281845093
0.25967525332682206,6.6409101486206055
0.2599194237577829,6.643654823303223
0.2469783909168599,6.646407127380371
0.2538151629837626,6.6492249965667725
0.24795507264070316,6.651983976364136
0.24722256134782072,6.654733657836914
0.26211695763643017,6.657517671585083
0.2608961054816261,6.660261631011963
0.24966426565742883,6.663015604019165
0.2557685264314491,6.665755987167358
0.24990843608838964,6.6685426235198975
0.25259431082895856,6.67128324508667
0.2648028323769991,6.674021482467651
0.26602368453180314,6.676763534545898
0.2557685264314491,6.6795432567596436
0.25967525332682206,6.682289123535156
0.2538151629837626,6.685044288635254
0.2516176291051153,6.687819719314575
0.26138444634354774,6.69056510925293
0.26138444634354774,6.6933064460754395
0.25039677695031126,6.696045398712158
0.25210596996703694,6.6988303661346436
0.24624587962397748,6.701577186584473
0.24136247100476127,6.704327344894409
0.25259431082895856,6.707064867019653
0.2508851178122329,6.70983624458313
0.24160664143572208,6.712582111358643
0.24502502746917343,6.715328931808472
0.24136247100476127,6.71811580657959
0.24014161884995722,6.7208662033081055
0.2511292882431937,6.723615646362305
0.25039677695031126,6.7263569831848145
0.24136247100476127,6.72925877571106
0.244292516176291,6.732006549835205
0.24136247100476127,6.734750509262085
0.23818825540227073,6.737532377243042
0.24966426565742883,6.740280389785767
0.24722256134782072,6.743027687072754
0.24038578928091803,6.745779275894165
0.24062995971187884,6.74857234954834
0.24014161884995722,6.751335144042969
0.23916493712611397,6.75408411026001
0.2513734586741545,6.756826639175415
0.25039677695031126,6.759613037109375
0.2418508118666829,6.762359142303467
0.24111830057380046,6.765104055404663
0.24014161884995722,6.767886161804199
0.23672323281650587,6.770632028579712
0.2491759247955072,6.773380517959595
0.2489317543645464,6.776129245758057
0.2423391527286045,6.778903961181641
0.2398974484189964,6.78165078163147
0.2398974484189964,6.7843992710113525
0.235258210230741,6.787177801132202
0.24380417531436938,6.78992772102356
0.24307166402148694,6.792680263519287
0.2396532779880356,6.795428514480591
0.23623489195458425,6.798210382461548
0.2376999145403491,6.800958871841431
0.2350140397997802,6.80370306968689
0.24380417531436938,6.806450128555298
0.24502502746917343,6.809226989746094
0.2374557441093883,6.811972379684448
0.23159565376632885,6.814722299575806
0.23354901721401533,6.817506313323975
0.22964229031864236,6.820252180099487
0.23818825540227073,6.82300066947937
0.23916493712611397,6.825752258300781
0.23696740324746668,6.828563928604126
0.23086314247344641,6.831315755844116
0.23599072152362344,6.8340582847595215
0.23135148333536804,6.836801290512085
0.2398974484189964,6.839580059051514
0.24062995971187884,6.842324495315552
0.23794408497130992,6.845070123672485
0.22964229031864236,6.847870349884033
0.23428152850689776,6.850633144378662
0.23110731290440722,6.853379726409912
0.23818825540227073,6.856131076812744
0.23940910755707479,6.858916521072388
0.23794408497130992,6.861670255661011
0.22915394945672074,6.864415407180786
0.23550238066170182,6.867198944091797
0.2325723354901721,6.869945287704468
0.23794408497130992,6.872699022293091
0.24111830057380046,6.8754494190216064
0.23916493712611397,6.878235578536987
0.2284214381638383,6.880983352661133
0.23623489195458425,6.883726358413696
0.23183982419728966,6.886471509933472
0.2376999145403491,6.889250040054321
0.2420949822976437,6.892003536224365
0.24062995971187884,6.8947529792785645
0.22915394945672074,6.897531509399414
0.23647906238554506,6.9002745151519775
0.23086314247344641,6.903020620346069
0.23452569893785857,6.905764579772949
0.24331583445244775,6.908557891845703
0.2418508118666829,6.911375045776367
0.22964229031864236,6.914126634597778
0.24014161884995722,6.916874647140503
0.23574655109266263,6.919654369354248
0.23940910755707479,6.9224019050598145
0.2469783909168599,6.925154209136963
0.24575753876205586,6.927942752838135
0.23232816505921128,6.930692195892334
0.24111830057380046,6.933440685272217
0.23403735807593695,6.936185598373413
0.23354901721401533,6.939061403274536
0.24038578928091803,6.941812992095947
0.2398974484189964,6.944558143615723
0.22744475643999507,6.9473371505737305
0.23354901721401533,6.950094938278198
0.22744475643999507,6.952845335006714
0.2281772677328775,6.955591917037964
0.23550238066170182,6.958373308181763
0.23672323281650587,6.961125373840332
0.2235380295446221,6.963874578475952
0.23428152850689776,6.966628074645996
0.22744475643999507,6.969427824020386
0.22915394945672074,6.972172975540161
0.23818825540227073,6.974928379058838
0.23672323281650587,6.977708578109741
0.22671224514711263,6.9804558753967285
0.23672323281650587,6.983203649520874
0.2306189720424856,6.985942125320435
0.2306189720424856,6.988720417022705
0.24038578928091803,6.991462469100952
0.24160664143572208,6.994207859039307
0.2284214381638383,6.996960163116455
0.23794408497130992,6.9997453689575195
0.23086314247344641,7.002491235733032
0.23354901721401533,7.005242109298706
0.2440483457453302,7.0080273151397705
0.24502502746917343,7.010777235031128
0.23086314247344641,7.01352596282959
0.24062995971187884,7.016265153884888
0.23354901721401533,7.01904559135437
0.23330484678305452,7.021793365478516
0.2440483457453302,7.024543762207031
0.24356000488340857,7.0273213386535645
0.23013063118056398,7.03006649017334
0.23843242583323154,7.032806873321533
0.23159565376632885,7.035553932189941
0.23428152850689776,7.03834080696106
0.24624587962397748,7.0410847663879395
0.24526919790013424,7.043829917907715
0.2325723354901721,7.046568393707275
0.23843242583323154,7.0493433475494385
0.23354901721401533,7.052100658416748
0.23183982419728966,7.054850816726685
0.2423391527286045,7.057633876800537
0.24258332315956532,7.060385227203369
0.23013063118056398,7.0631279945373535
0.23672323281650587,7.065868377685547
0.23159565376632885,7.068641185760498
0.23354901721401533,7.071389675140381
0.2445366866072518,7.074135065078735
0.2440483457453302,7.076881647109985
0.2328165059211329,7.079660892486572
0.23818825540227073,7.082411050796509
0.23403735807593695,7.085464715957642
0.23354901721401533,7.088282823562622
0.24624587962397748,7.091034650802612
0.2445366866072518,7.093778371810913
0.23232816505921128,7.096526861190796
0.23916493712611397,7.09930419921875
0.23354901721401533,7.102052211761475
0.23330484678305452,7.104802846908569
0.244292516176291,7.107583045959473
0.2440483457453302,7.110334634780884
0.2325723354901721,7.113082647323608
0.23794408497130992,7.11583137512207
0.23330484678305452,7.11861252784729
0.235258210230741,7.121358633041382
0.244292516176291,7.124106168746948
0.24380417531436938,7.1268532276153564
0.23330484678305452,7.129636526107788
0.2396532779880356,7.132386207580566
0.2372115736784275,7.135130167007446
0.235258210230741,7.137908220291138
0.24600170919301667,7.140661716461182
0.24526919790013424,7.1434125900268555
0.23623489195458425,7.146158933639526
0.24014161884995722,7.149024963378906
0.23550238066170182,7.151781797409058
0.23452569893785857,7.154524087905884
0.24380417531436938,7.157310247421265
0.24258332315956532,7.160055637359619
0.2350140397997802,7.162798643112183
0.23916493712611397,7.165542840957642
0.2374557441093883,7.168322324752808
0.23599072152362344,7.171068906784058
0.24746673177878153,7.173818349838257
0.24600170919301667,7.176563739776611
0.23623489195458425,7.179373264312744
0.23843242583323154,7.182116985321045
0.23696740324746668,7.184859991073608
0.23403735807593695,7.187641620635986
0.24771090220974235,7.190397024154663
0.2469783909168599,7.193145513534546
0.24014161884995722,7.195889949798584
0.24160664143572208,7.198741674423218
0.24038578928091803,7.201488494873047
0.23916493712611397,7.204238176345825
0.2516176291051153,7.206979036331177
0.24966426565742883,7.20977783203125
0.2418508118666829,7.212528705596924
0.24136247100476127,7.215270519256592
0.24307166402148694,7.218058824539185
0.23867659626419235,7.220806837081909
0.25283848125991937,7.223554849624634
0.25210596996703694,7.226289510726929
0.24966426565742883,7.229081392288208
0.24746673177878153,7.231830596923828
0.24795507264070316,7.234578609466553
0.244292516176291,7.237355470657349
0.25479184470760585,7.240107536315918
0.2538151629837626,7.242854118347168
0.2489317543645464,7.2456018924713135
0.24526919790013424,7.248383283615112
0.24746673177878153,7.25114631652832
0.2440483457453302,7.253899097442627
0.25235014039799775,7.2566399574279785
0.2540593334147234,7.259418487548828
0.2506409473812721,7.262159824371338
0.2445366866072518,7.264902353286743
0.24844341350262478,7.26768946647644
0.24502502746917343,7.270440340042114
0.2538151629837626,7.273189306259155
0.25430350384568423,7.275926351547241
0.2491759247955072,7.278711795806885
0.24258332315956532,7.28145694732666
0.2464900500549383,7.28420090675354
0.24331583445244775,7.286943197250366
0.24966426565742883,7.289726257324219
0.2511292882431937,7.292466402053833
0.2491759247955072,7.295214891433716
0.24038578928091803,7.297993421554565
0.2464900500549383,7.300745725631714
0.2420949822976437,7.303492546081543
0.2469783909168599,7.306238889694214
0.2513734586741545,7.309007406234741
0.2469783909168599,7.311747312545776
0.23672323281650587,7.314494371414185
0.244292516176291,7.317270994186401
0.2398974484189964,7.320017099380493
0.244292516176291,7.322762727737427
0.24942009522646802,7.325508117675781
0.24844341350262478,7.328305959701538
0.2374557441093883,7.3310558795928955
0.24526919790013424,7.333805561065674
0.2398974484189964,7.336554765701294
0.24600170919301667,7.339351415634155
0.2535709925528018,7.342108488082886
0.2508851178122329,7.344853401184082
0.23867659626419235,7.3476479053497314
0.2491759247955072,7.3503923416137695
0.24282749359052613,7.353147506713867
0.24722256134782072,7.355893611907959
0.2538151629837626,7.358766078948975
0.2530826516908802,7.361507892608643
0.24038578928091803,7.364255666732788
0.24966426565742883,7.367009401321411
0.24307166402148694,7.369810342788696
0.24526919790013424,7.372559070587158
0.25210596996703694,7.3752992153167725
0.2486875839335856,7.378083229064941
0.23452569893785857,7.380821228027344
0.2423391527286045,7.3835673332214355
0.23476986936881938,7.386310338973999
0.23623489195458425,7.3890955448150635
0.24380417531436938,7.3918492794036865
0.24526919790013424,7.394599676132202
0.23183982419728966,7.397378921508789
0.2418508118666829,7.400136470794678
0.23476986936881938,7.402886867523193
0.23647906238554506,7.405632972717285
0.24624587962397748,7.4084131717681885
0.24600170919301667,7.411167144775391
0.2325723354901721,7.413913249969482
0.2418508118666829,7.416663646697998
0.23379318764497614,7.419452428817749
0.235258210230741,7.422205924987793
0.24575753876205586,7.424952268600464
0.24600170919301667,7.427731275558472
0.23159565376632885,7.430480480194092
0.24111830057380046,7.4332287311553955
0.2330606763520937,7.4359776973724365
0.23599072152362344,7.4387595653533936
0.24844341350262478,7.441515684127808
0.24819924307166397,7.444273471832275
0.23452569893785857,7.447016000747681
0.24331583445244775,7.449805974960327
0.23599072152362344,7.452558994293213
0.2398974484189964,7.4553070068359375
0.24990843608838964,7.4580981731414795
0.2508851178122329,7.460838317871094
0.2376999145403491,7.463589429855347
0.24526919790013424,7.46633505821228
0.23843242583323154,7.46911358833313
0.23867659626419235,7.471859693527222
0.2511292882431937,7.474600791931152
0.2516176291051153,7.477376461029053
0.23794408497130992,7.480123996734619
0.24502502746917343,7.482874393463135
0.2376999145403491,7.485626220703125
0.23843242583323154,7.488399982452393
0.24942009522646802,7.491144180297852
0.24990843608838964,7.49389123916626
0.23867659626419235,7.496640682220459
0.24526919790013424,7.49941611289978
0.24014161884995722,7.502162218093872
0.23916493712611397,7.504915475845337
0.25283848125991937,7.507685899734497
0.2518617995360761,7.5104289054870605
0.24062995971187884,7.513179302215576
0.2469783909168599,7.515927791595459
0.24258332315956532,7.5187087059021
0.24136247100476127,7.52145528793335
0.25210596996703694,7.524194955825806
0.25210596996703694,7.52693510055542
0.2423391527286045,7.52980637550354
0.24722256134782072,7.532562494277954
0.24307166402148694,7.535308599472046
0.24136247100476127,7.5380859375
0.2516176291051153,7.5408289432525635
0.25015260651935045,7.5435779094696045
0.2398974484189964,7.5463292598724365
0.24282749359052613,7.549105882644653
0.23916493712611397,7.5518553256988525
0.23916493712611397,7.5546042919158936
0.25039677695031126,7.557384967803955
0.2491759247955072,7.560132026672363
0.24111830057380046,7.562885522842407
0.2420949822976437,7.565639495849609
0.24014161884995722,7.568530321121216
0.235258210230741,7.5712809562683105
0.2464900500549383,7.574035882949829
0.24502502746917343,7.576780319213867
0.2372115736784275,7.579560279846191
0.23843242583323154,7.582293272018433
0.23550238066170182,7.58533787727356
0.23476986936881938,7.588123321533203
0.24600170919301667,7.590875864028931
0.24502502746917343,7.5936219692230225
0.235258210230741,7.59636664390564
0.23940910755707479,7.599145412445068
0.2372115736784275,7.601893901824951
0.235258210230741,7.604646682739258
0.24624587962397748,7.60742712020874
0.24575753876205586,7.6101768016815186
0.23647906238554506,7.61291766166687
0.2398974484189964,7.615664482116699
0.23623489195458425,7.618446111679077
0.23599072152362344,7.621185302734375
0.2469783909168599,7.6239283084869385
0.24575753876205586,7.626675128936768
0.23916493712611397,7.629451513290405
0.24062995971187884,7.632205009460449
0.23916493712611397,7.634950399398804
0.23867659626419235,7.6377317905426025
0.24990843608838964,7.640481948852539
0.24844341350262478,7.643233776092529
0.24136247100476127,7.645977973937988
0.23940910755707479,7.6487510204315186
0.23843242583323154,7.651488542556763
0.23818825540227073,7.654251337051392
0.2511292882431937,7.656994819641113
0.2508851178122329,7.659775018692017
0.24795507264070316,7.662517070770264
0.24600170919301667,7.665260314941406
0.24819924307166397,7.6680402755737305
0.244292516176291,7.670786142349243
0.2530826516908802,7.673523902893066
0.25210596996703694,7.676265001296997
0.2469783909168599,7.679043769836426
0.24282749359052613,7.6817946434021
0.24380417531436938,7.684539079666138
0.2423391527286045,7.6873390674591064
0.2506409473812721,7.6900858879089355
0.2516176291051153,7.692835569381714
0.24624587962397748,7.695582151412964
0.2398974484189964,7.698362588882446
0.2440483457453302,7.70111346244812
0.24062995971187884,7.703862190246582
0.2464900500549383,7.706606864929199
0.2489317543645464,7.70939040184021
0.2445366866072518,7.712134599685669
0.2372115736784275,7.7148826122283936
0.2423391527286045,7.717661380767822
0.23916493712611397,7.720404624938965
0.25039677695031126,7.723144054412842
0.253326822121841,7.725893020629883
0.25210596996703694,7.728662967681885
0.24258332315956532,7.7314043045043945
0.24990843608838964,7.734156608581543
0.2440483457453302,7.736905574798584
0.2491759247955072,7.739682912826538
0.2538151629837626,7.742426633834839
0.2535709925528018,7.745166778564453
0.2418508118666829,7.747949123382568
0.2518617995360761,7.750689506530762
0.2445366866072518,7.753437042236328
0.24819924307166397,7.756183624267578
0.2555243560004883,7.758966684341431
0.25430350384568423,7.761706352233887
0.24136247100476127,7.764450311660767
0.2511292882431937,7.767218589782715
0.24575753876205586,7.769964218139648
0.24966426565742883,7.77271580696106
0.25698937858625315,7.775460720062256
0.2555243560004883,7.77833104133606
0.2420949822976437,7.781071901321411
0.2491759247955072,7.783817529678345
0.2440483457453302,7.786564826965332
0.24771090220974235,7.789339065551758
0.25479184470760585,7.792084455490112
0.2540593334147234,7.794824123382568
0.24062995971187884,7.797604084014893
0.2491759247955072,7.800354242324829
0.24258332315956532,7.80309534072876
0.2445366866072518,7.805840492248535
0.2555243560004883,7.80863881111145
0.25430350384568423,7.811383485794067
0.24038578928091803,7.8141255378723145
0.2491759247955072,7.8168768882751465
0.24111830057380046,7.819657802581787
0.24111830057380046,7.822408676147461
0.24966426565742883,7.825157642364502
0.2491759247955072,7.827936172485352
0.23452569893785857,7.830682277679443
0.24526919790013424,7.833431720733643
0.23818825540227073,7.836181879043579
0.23892076669515316,7.838961839675903
0.25039677695031126,7.8417041301727295
0.25015260651935045,7.844444751739502
0.23696740324746668,7.847212076187134
0.24624587962397748,7.849972724914551
0.23916493712611397,7.852720737457275
0.24111830057380046,7.855492353439331
0.25283848125991937,7.858291864395142
0.25235014039799775,7.861037492752075
0.23843242583323154,7.863781690597534
0.24722256134782072,7.866532564163208
0.24038578928091803,7.869313716888428
0.24038578928091803,7.872060537338257
0.25235014039799775,7.874801397323608
0.2538151629837626,7.877580881118774
0.24014161884995722,7.880362272262573
0.24795507264070316,7.8831188678741455
0.24087413014283965,7.88586163520813
0.24307166402148694,7.888643264770508
0.25210596996703694,7.891374588012695
0.2530826516908802,7.894116163253784
0.24014161884995722,7.896862030029297
0.2464900500549383,7.899644136428833
0.24111830057380046,7.902397394180298
0.23794408497130992,7.905147314071655
0.2486875839335856,7.907933712005615
0.24990843608838964,7.9106879234313965
0.23818825540227073,7.91344141960144
0.24331583445244775,7.916185617446899
0.23818825540227073,7.918970584869385
0.2398974484189964,7.921716690063477
0.2518617995360761,7.924449443817139
0.2511292882431937,7.927238464355469
0.2398974484189964,7.9299890995025635
0.244292516176291,7.932739734649658
0.24062995971187884,7.9354941844940186
0.2398974484189964,7.938286542892456
0.24990843608838964,7.941042423248291
0.25039677695031126,7.943781614303589
0.24062995971187884,7.946533203125
0.24331583445244775,7.949311017990112
0.24087413014283965,7.952059030532837
0.2398974484189964,7.954803466796875
0.2530826516908802,7.957615613937378
0.25210596996703694,7.960363864898682
0.24307166402148694,7.963114023208618
0.24600170919301667,7.965863943099976
0.24331583445244775,7.968652725219727
0.2418508118666829,7.971400022506714
0.2530826516908802,7.974140405654907
0.25283848125991937,7.976883411407471
0.244292516176291,7.979669809341431
0.24575753876205586,7.982423782348633
0.24380417531436938,7.985177040100098
0.2440483457453302,7.988059997558594
0.2540593334147234,7.990806341171265
0.25259431082895856,7.993554592132568
0.24502502746917343,7.996302366256714
0.24624587962397748,7.999076843261719
0.24551336833109505,8.001824617385864
0.24478085703821262,8.0045645236969
0.2555243560004883,8.007341384887695
0.25430350384568423,8.01008152961731
0.24844341350262478,8.012825012207031
0.24722256134782072,8.015570640563965
0.24624587962397748,8.018351554870605
0.2440483457453302,8.021106719970703
0.25479184470760585,8.023850440979004
0.2540593334147234,8.026586294174194
0.24819924307166397,8.029369115829468
0.24624587962397748,8.032118797302246
0.24771090220974235,8.03487253189087
0.2445366866072518,8.037658214569092
0.25479184470760585,8.040400743484497
0.2540593334147234,8.04314661026001
0.24966426565742883,8.045899868011475
0.2469783909168599,8.04870343208313
0.24990843608838964,8.051456212997437
0.2469783909168599,8.054207563400269
0.25698937858625315,8.05697226524353
0.25747771944817477,8.059765577316284
0.2516176291051153,8.062509059906006
0.2508851178122329,8.065251111984253
0.25698937858625315,8.06803035736084
0.2540593334147234,8.070767879486084
0.2611402759125869,8.073516845703125
0.26187278720546936,8.076255321502686
0.2579660603100964,8.079029560089111
0.2508851178122329,8.081766605377197
0.25430350384568423,8.08480978012085
0.2508851178122329,8.087599277496338
0.25918691246490044,8.090344429016113
0.2586985716029788,8.093093395233154
0.25235014039799775,8.096264362335205
0.2530826516908802,8.099429607391357
0.2511292882431937,8.102311134338379
0.2516176291051153,8.105110168457031
0.2628494689293126,8.108381271362305
0.2645586619460383,8.11150574684143
0.24966426565742883,8.114408016204834
0.25747771944817477,8.11730170249939
0.2508851178122329,8.120325088500977
0.2562568672933707,8.123441696166992
0.25967525332682206,8.12641954421997
0.2555243560004883,8.129639625549316
0.2552801855695275,8.132801532745361
0.2508851178122329,8.136014699935913
0.24990843608838964,8.139254570007324
0.25943108289586125,8.142334461212158
0.25967525332682206,8.145501613616943
0.24844341350262478,8.148661851882935
0.2518617995360761,8.151791095733643
0.24746673177878153,8.154766082763672
0.25943108289586125,8.15804386138916
0.2626052984983518,8.161167621612549
0.2489317543645464,8.164100885391235
0.2560126968624099,8.167264699935913
0.24844341350262478,8.170478343963623
0.253326822121841,8.173529624938965
0.25698937858625315,8.17661738395691
0.2518617995360761,8.179566383361816
0.2513734586741545,8.18243956565857
0.25039677695031126,8.185706853866577
0.24990843608838964,8.188898086547852
0.2608961054816261,8.191705703735352
0.2626052984983518,8.194506406784058
0.2489317543645464,8.197789669036865
0.2562568672933707,8.200990438461304
0.2508851178122329,8.203940153121948
0.25967525332682206,8.207026481628418
0.2626052984983518,8.210304021835327
0.25479184470760585,8.213425397872925
0.25698937858625315,8.216586351394653
0.25015260651935045,8.219798803329468
0.2518617995360761,8.222954988479614
0.2599194237577829,8.226089000701904
0.2582102307410572,8.229305267333984
0.2538151629837626,8.232188940048218
0.2562568672933707,8.235428094863892
0.25259431082895856,8.238669395446777
0.2628494689293126,8.241541862487793
0.26382615065315584,8.244647026062012
0.2491759247955072,8.24793004989624
0.2538151629837626,8.25097918510437
0.24990843608838964,8.254057168960571
0.25747771944817477,8.256882429122925
0.2601635941887437,8.259950399398804
0.2555243560004883,8.263140439987183
0.25747771944817477,8.266192197799683
0.2530826516908802,8.269094705581665
0.2508851178122329,8.27193808555603
0.26187278720546936,8.275053024291992
0.2633378097912342,8.27831244468689
0.24722256134782072,8.281331539154053
0.25943108289586125,8.284450054168701
0.25015260651935045,8.287730932235718
0.26187278720546936,8.290863990783691
0.2633378097912342,8.294005870819092
0.25283848125991937,8.297242879867554
0.25943108289586125,8.300383567810059
0.25259431082895856,8.303530216217041
0.25747771944817477,8.306626796722412
0.26211695763643017,8.309781789779663
0.2577218898791356,8.31288456916809
0.2557685264314491,8.315988063812256
0.2538151629837626,8.318943738937378
0.2530826516908802,8.322030305862427
0.26577951410084233,8.325209379196167
0.26675619582468557,8.328321695327759
0.2508851178122329,8.331355571746826
0.25894274203393963,8.334169387817383
0.25430350384568423,8.337477922439575
0.2645586619460383,8.340567588806152
0.2652911732389207,8.343604326248169
0.2577218898791356,8.346411228179932
0.2586985716029788,8.34945034980774
0.2560126968624099,8.352529764175415
0.2577218898791356,8.355668783187866
0.267488707117568,8.358836889266968
0.26870955927237206,8.361932277679443
0.2555243560004883,8.365086793899536
0.2601635941887437,8.368336200714111
0.2586985716029788,8.371466159820557
0.27115126358198016,8.37466025352478
0.2718837748748626,8.37783694267273
0.2555243560004883,8.38102102279663
0.26407032108411665,8.384089946746826
0.2579660603100964,8.387294054031372
0.2645586619460383,8.390457153320312
0.2655353436698815,8.393551111221313
0.25698937858625315,8.396590232849121
0.2577218898791356,8.399597644805908
0.25430350384568423,8.402435779571533
0.25283848125991937,8.405214071273804
0.26870955927237206,8.408180475234985
0.2672445366866072,8.4109365940094
0.2530826516908802,8.413676977157593
0.26138444634354774,8.416425228118896
0.2577218898791356,8.419224977493286
0.25894274203393963,8.421972036361694
0.27359296789158827,8.42471194267273
0.2743254791844707,8.427496194839478
0.2626052984983518,8.430243492126465
0.26577951410084233,8.432985305786133
0.26187278720546936,8.435726165771484
0.2599194237577829,8.438515901565552
0.27115126358198016,8.441265106201172
